t,low_f
-5.12,0.0978216256733401
-5.11875,0.0858777853641816
-5.1175,0.0742854278711479
-5.11625,0.0631700910702713
-5.115,0.0526453177285055
-5.11375,0.0428093960849237
-5.1125,0.0337423545428638
-5.11125,0.0255034534310962
-5.11,0.0181295652259776
-5.10875,0.011634856039885
-5.1075,0.00601195956063669
-5.10625,0.00123451633102006
-5.105,-0.00273924274034186
-5.10375,-0.00596225928039117
-5.1025,-0.00849423649658612
-5.10125,-0.0103976421680137
-5.1,-0.0117346693961535
-5.09875,-0.0125654393593491
-5.0975,-0.0129474206962569
-5.09625,-0.0129358429371561
-5.095,-0.0125847572507919
-5.09375,-0.0119482512479327
-5.0925,-0.0110812436491253
-5.09125,-0.0100394368160586
-5.09,-0.00887833184930509
-5.08875,-0.00765147207852921
-5.0875,-0.00640818696752695
-5.08625,-0.00519118641128452
-5.085,-0.00403447929892272
-5.08375,-0.00296212660312133
-5.0825,-0.00198815472979549
-5.08125,-0.00111764891978213
-5.08,-0.000348817285950594
-5.07875,0.000324310744024368
-5.0775,0.00090902184853789
-5.07625,0.00141147983945215
-5.075,0.00183522039020151
-5.07375,0.00218078774619769
-5.0725,0.00244641263740371
-5.07125,0.00262947863812164
-5.07,0.00272845045975007
-5.06875,0.00274481778398071
-5.0675,0.00268451749246319
-5.06625,0.00255840770868753
-5.065,0.00238165891140374
-5.06375,0.00217219725926182
-5.0625,0.0019484826694712
-5.06125,0.00172702115120911
-5.06,0.00152014697403682
-5.05875,0.00133461829519973
-5.0575,0.00117133342637949
-5.05625,0.001026143487388
-5.055,0.000891533433798874
-5.05375,0.000758864891398035
-5.0525,0.000620773891436438
-5.05125,0.000473196343120258
-5.05,0.000316527489275733
-5.04875,0.00015567063788819
-5.0475,-9.72521212684216e-07
-5.04625,-0.000143332089438028
-5.045,-0.000261964626637038
-5.04375,-0.000350312177686295
-5.0425,-0.000406349343061103
-5.04125,-0.000433201732299478
-5.04,-0.000438650560871014
-5.03875,-0.000433700585830936
-5.0375,-0.000430496882150107
-5.03625,-0.000439956578797898
-5.035,-0.00046960551729335
-5.03375,-0.000522144289946919
-5.0325,-0.00059508312276553
-5.03125,-0.000681480724336138
-5.03,-0.000771595000726751
-5.02875,-0.000855128056987387
-5.0275,-0.000923614455002295
-5.02625,-0.000972383173532514
-5.025,-0.00100159793407984
-5.02375,-0.00101617803860567
-5.0225,-0.00102470733080238
-5.02125,-0.00103758772078201
-5.02,-0.00106476496150623
-5.01875,-0.0011134735839842
-5.0175,-0.00118653906018707
-5.01625,-0.00128166460068211
-5.015,-0.00139183833700193
-5.01375,-0.00150672755332212
-5.0125,-0.00161477832016078
-5.01125,-0.00170561906789416
-5.01,-0.00177222900995292
-5.00875,-0.00181232498771486
-5.0075,-0.00182865659530634
-5.00625,-0.00182822896751884
-5.005,-0.00182067612730417
-5.00375,-0.00181608877996775
-5.0025,-0.00182270230506798
-5.00125,-0.0018449692476164
-5,-0.00188250400372826
-4.99875,-0.00193013636102568
-4.9975,-0.00197901354735159
-4.99625,-0.00201850611079869
-4.995,-0.00203855736021969
-4.99375,-0.00203197649752673
-4.9925,-0.00199610512022123
-4.99125,-0.00193344951790863
-4.99,-0.00185120027468142
-4.98875,-0.00175981735695223
-4.9875,-0.00167096275018709
-4.98625,-0.00159514335321989
-4.985,-0.00153955380811164
-4.98375,-0.00150664536194235
-4.9825,-0.0014937609952508
-4.98125,-0.00149387183375332
-4.98,-0.00149722359205468
-4.97875,-0.00149357718976316
-4.9775,-0.00147459310852925
-4.97625,-0.00143578837808213
-4.975,-0.00137756817668085
-4.97375,-0.00130513230640735
-4.9725,-0.00122736465742982
-4.97125,-0.00115496563214747
-4.97,-0.00109816050711749
-4.96875,-0.00106443450689069
-4.9675,-0.00105683287793609
-4.96625,-0.00107325113966559
-4.965,-0.00110684881688313
-4.96375,-0.00114745058058291
-4.9625,-0.00118364916759097
-4.96125,-0.00120520458723461
-4.96,-0.00120519923750001
-4.95875,-0.00118140547271264
-4.9575,-0.00113656135647984
-4.95625,-0.00107757942089024
-4.955,-0.00101391378084498
-4.95375,-0.000955389196247283
-4.9525,-0.000909896462687796
-4.95125,-0.000881477177650834
-4.95,-0.000869285230995995
-4.94875,-0.000867662555228877
-4.9475,-0.000867270083545686
-4.94625,-0.000857028795442224
-4.945,-0.00082650560393076
-4.94375,-0.000768234542364576
-4.9425,-0.000679393568289008
-4.94125,-0.000562426883864965
-4.94,-0.000424540265585738
-4.93875,-0.000276257765949862
-4.9375,-0.000129330819583894
-4.93625,5.63209193958089e-06
-4.935,0.00012132369545327
-4.93375,0.000215159604065252
-4.9325,0.000289627186714748
-4.93125,0.000351531188425214
-4.93,0.000410332179216585
-4.92875,0.000475900358873159
-4.9275,0.000556142857691628
-4.92625,0.000655078019613295
-4.925,0.000771846461345602
-4.92375,0.000900844363485788
-4.9225,0.00103286032169595
-4.92125,0.00115695308939893
-4.92,0.00126273952401397
-4.91875,0.00134264549242491
-4.9175,0.00139358470048499
-4.91625,0.00141764252644192
-4.915,0.00142163185757437
-4.91375,0.00141565575070047
-4.9125,0.00141096332049178
-4.91125,0.00141751168696737
-4.91,0.0014417869090764
-4.90875,0.00148543612009954
-4.9075,0.00154501348314686
-4.90625,0.00161280682823692
-4.905,0.00167851219161665
-4.90375,0.00173144826091126
-4.9025,0.00176290304565807
-4.90125,0.00176808743819424
-4.9,0.00174720877932911
-4.89875,0.00170543001597905
-4.8975,0.00165177680537472
-4.89625,0.00159723821279595
-4.895,0.00155242224065316
-4.89375,0.00152526766139394
-4.8925,0.00151938225326958
-4.89125,0.00153341026726831
-4.89,0.00156150034223585
-4.88875,0.00159469052751538
-4.8875,0.00162292651042576
-4.88625,0.00163735017023576
-4.885,0.00163237109913792
-4.88375,0.00160700205384572
-4.8825,0.00156512825646821
-4.88125,0.00151468449787493
-4.88,0.00146593862455659
-4.87875,0.00142920815206232
-4.8775,0.00141247632017759
-4.87625,0.00141948661272406
-4.875,0.00144879920268948
-4.87375,0.00149398024094649
-4.8725,0.00154479531167948
-4.87125,0.00158914256881273
-4.87,0.00161539477372809
-4.86875,0.00161470086597098
-4.8675,0.00158271096416458
-4.86625,0.00152030543100873
-4.865,0.00143320132676859
-4.86375,0.00133057465474238
-4.8625,0.00122298196229922
-4.86125,0.00111998453081858
-4.86,0.00102801465876471
-4.85875,0.000949025765318067
-4.8575,0.000880227106990152
-4.85625,0.000814875291655291
-4.855,0.000743896712596818
-4.85375,0.000658038768755916
-4.8525,0.000550147505954898
-4.85125,0.00041705112990714
-4.85,0.000260565429094399
-4.84875,8.73869030808645e-05
-4.8475,-9.20650987667042e-05
-4.84625,-0.000265610520551199
-4.845,-0.00042170820476332
-4.84375,-0.000551783352303929
-4.8425,-0.000651907689459756
-4.84125,-0.000723430322775716
-4.84,-0.000772491378345357
-4.83875,-0.000808603438188304
-4.8375,-0.000842584626914492
-4.83625,-0.00088420716760769
-4.835,-0.000940052456847927
-4.83375,-0.00101209679264288
-4.8325,-0.00109736244285057
-4.83125,-0.00118866494684726
-4.83,-0.00127626484158733
-4.82875,-0.00135010665623943
-4.8275,-0.00140218976027478
-4.82625,-0.00142849677693682
-4.825,-0.00142998718925313
-4.82375,-0.00141246727998022
-4.8225,-0.00138545029409591
-4.82125,-0.00136026500214607
-4.82,-0.00134774337893186
-4.81875,-0.00135593982658123
-4.8175,-0.00138842183107782
-4.81625,-0.00144355528129696
-4.815,-0.00151491585011447
-4.81375,-0.00159269217398611
-4.8125,-0.00166579762661655
-4.81125,-0.00172428338438468
-4.81,-0.00176150779886248
-4.80875,-0.00177551663484353
-4.8075,-0.00176933063172453
-4.80625,-0.0017501635488519
-4.805,-0.00172779128642333
-4.80375,-0.00171237395666687
-4.8025,-0.0017121407527601
-4.80125,-0.00173146838171311
-4.8,-0.00176984266207902
-4.79875,-0.00182193697503777
-4.7975,-0.00187874311499719
-4.79625,-0.00192950509576256
-4.795,-0.00196408710717283
-4.79375,-0.00197526400729393
-4.7925,-0.00196035806729976
-4.79125,-0.00192182185997147
-4.79,-0.00186670404453112
-4.78875,-0.0018051880127234
-4.7875,-0.00174849187681975
-4.78625,-0.00170649801415924
-4.785,-0.00168560508249525
-4.78375,-0.00168732462503483
-4.7825,-0.00170795352891522
-4.78125,-0.00173935038525516
-4.78,-0.00177062095299775
-4.77875,-0.00179039242677697
-4.7775,-0.00178921945283729
-4.77625,-0.0017615480871004
-4.775,-0.00170674647467728
-4.77375,-0.00162901391862499
-4.7725,-0.00153628290063497
-4.77125,-0.00143837422444612
-4.77,-0.00134473856671042
-4.76875,-0.00126223823690896
-4.7675,-0.00119350815270535
-4.76625,-0.00113631562376076
-4.765,-0.00108404401650787
-4.76375,-0.00102715788078763
-4.7625,-0.000955355863945584
-4.76125,-0.0008599901287497
-4.76,-0.000736194899060622
-4.75875,-0.000584179050851764
-4.7575,-0.000409395680127874
-4.75625,-0.000221633831361994
-4.755,-3.32685572853994e-05
-4.75375,0.000143022272080614
-4.7525,0.000296663355625397
-4.75125,0.000421179838988353
-4.75,0.000515300423633446
-4.74875,0.000582933770526138
-4.7475,0.000632081236191179
-4.74625,0.000672930535598386
-4.745,0.000715491868208198
-4.74375,0.000767280648770254
-4.7425,0.000831621571055962
-4.74125,0.000906982616263342
-4.74,0.000987415561346606
-4.73875,0.00106392365899235
-4.7375,0.00112647542939521
-4.73625,0.00116630240150127
-4.735,0.00117799091796189
-4.73375,0.0011608447123731
-4.7325,0.0011191844249431
-4.73125,0.00106155476281359
-4.73,0.000999034193733895
-4.72875,0.000942968750260419
-4.7275,0.000902589151892703
-4.72625,0.000883085292251561
-4.725,0.000884624776004817
-4.72375,0.000902495955116621
-4.7225,0.000928254286234652
-4.72125,0.000951609191107213
-4.72,0.000962718652588624
-4.71875,0.000954440065442011
-4.7175,0.000924001975353624
-4.71625,0.000873680712587388
-4.715,0.000810358173266606
-4.71375,0.000744100943097355
-4.7125,0.000686047629783456
-4.71125,0.000646013742828681
-4.71,0.000630358803418414
-4.70875,0.000640655779112563
-4.7075,0.000673455434709307
-4.70625,0.000721110180388506
-4.705,0.000773428828897025
-4.70375,0.000819859034985315
-4.7025,0.000851791342775087
-4.70125,0.000864459781588018
-4.7,0.000857955052819609
-4.69875,0.000837121317478239
-4.6975,0.000810403988598239
-4.69625,0.000787900760974209
-4.695,0.000778990567368994
-4.69375,0.000790058817249942
-4.6925,0.000822894825769893
-4.69125,0.000874151570635602
-4.69,0.000935918929599962
-4.68875,0.000997213847768313
-4.6875,0.00104609786362136
-4.68625,0.0010720541100995
-4.685,0.00106813126308707
-4.68375,0.001032334820261
-4.6825,0.000967939531768532
-4.68125,0.000882699329653628
-4.68,0.00078715102147481
-4.67875,0.000692332572317507
-4.6775,0.000607374437941479
-4.67625,0.000537538286617006
-4.675,0.000483192627983598
-4.67375,0.000439911890093324
-4.6725,0.000399584727607253
-4.67125,0.000352273390987027
-4.67,0.000288492613044798
-4.66875,0.000201454256843891
-4.6675,8.87378634448095e-05
-4.66625,-4.70324180089957e-05
-4.665,-0.000198629617955656
-4.66375,-0.000355645185837527
-4.6625,-0.000506603553208757
-4.66125,-0.000641359870349232
-4.66,-0.00075323442480435
-4.65875,-0.000840342189497176
-4.6575,-0.000905823718069238
-4.65625,-0.000957011797476258
-4.655,-0.00100376257013172
-4.65375,-0.00105625648053167
-4.6525,-0.00112267869053317
-4.65125,-0.00120730656039993
-4.65,-0.00130948758216507
-4.64875,-0.00142373426422972
-4.6475,-0.00154086748800612
-4.64625,-0.00164995882602116
-4.645,-0.00174070348189286
-4.64375,-0.00180571211756148
-4.6425,-0.00184214712568515
-4.64125,-0.00185230703684817
-4.64,-0.00184309806458214
-4.63875,-0.00182458162098119
-4.6375,-0.00180788399650033
-4.63625,-0.00180283695612256
-4.635,-0.00181584600445099
-4.63375,-0.00184851079833775
-4.6325,-0.00189732602896342
-4.63125,-0.00195448441005962
-4.63,-0.00200958036005834
-4.62875,-0.00205188686610267
-4.6275,-0.00207274035052233
-4.62625,-0.00206745683854086
-4.625,-0.00203629715845123
-4.62375,-0.00198430911351388
-4.6225,-0.00192017324488681
-4.62125,-0.00185431583116837
-4.62,-0.00179662201289064
-4.61875,-0.00175420280747243
-4.6175,-0.00172975376144213
-4.61625,-0.00172091933024736
-4.615,-0.00172078054579251
-4.61375,-0.00171932040224925
-4.6125,-0.00170557696418541
-4.61125,-0.00167006895656286
-4.61,-0.00160694000350524
-4.60875,-0.00151527722731891
-4.6075,-0.00139931644576103
-4.60625,-0.00126757703504251
-4.605,-0.0011311598703676
-4.60375,-0.00100151541241152
-4.6025,-0.000888093275453199
-4.60125,-0.000796401845756078
-4.6,-0.00072696049225532
-4.59875,-0.000675370138125625
-4.5975,-0.00063343486820753
-4.59625,-0.000591087321603336
-4.595,-0.000538751876549678
-4.59375,-0.000469635465239527
-4.5925,-0.000381370555805307
-4.59125,-0.000276610069964671
-4.59,-0.000162509293679077
-4.58875,-4.92824378885613e-05
-4.5875,5.18788351712406e-05
-4.58625,0.000131155292714887
-4.585,0.000182222389582343
-4.58375,0.000203622187711005
-4.5825,0.000199058381876085
-4.58125,0.000176593213674777
-4.58,0.000146945484393382
-4.57875,0.00012121283781101
-4.5775,0.000108479325151707
-4.57625,0.000113883353810468
-4.575,0.000137629978835985
-4.57375,0.000175123389675111
-4.5725,0.000218097439428809
-4.57125,0.000256484922869968
-4.57,0.00028069592336774
-4.56875,0.00028385265848138
-4.5675,0.000263442264842871
-4.56625,0.000221970775373973
-4.565,0.000166497505800857
-4.56375,0.000107194580190798
-4.5625,5.52239337745245e-05
-4.56125,2.03487378626658e-05
-4.56,8.82984885396344e-06
-4.55875,2.21440438146701e-05
-4.5575,5.68045275096226e-05
-4.55625,0.000105236488545724
-4.555,0.00015747279130428
-4.55375,0.000203362624436194
-4.5525,0.000234882188397713
-4.55125,0.000248019499091893
-4.55,0.000243752613596469
-4.54875,0.000227899855018377
-4.5475,0.000209916306297184
-4.54625,0.000200893548789548
-4.545,0.000211141801761227
-4.54375,0.000247877422356045
-4.5425,0.000313593720864304
-4.54125,0.000405502742527992
-4.54,0.000516095266741754
-4.53875,0.000634621943999878
-4.5375,0.000749207737168152
-4.53625,0.000849230298895259
-4.535,0.000927464337577531
-4.53375,0.000981468654476582
-4.5325,0.00101389167272128
-4.53125,0.0010316772700616
-4.53,0.00104437204327212
-4.52875,0.00106185868064485
-4.5275,0.00109197832773447
-4.52625,0.00113861879300057
-4.525,0.00120075359367688
-4.52375,0.0012726077744789
-4.5225,0.00134482672984729
-4.52125,0.00140638476734369
-4.52,0.0014468982700904
-4.51875,0.0014588863846668
-4.5175,0.00143943966471858
-4.51625,0.00139088239416952
-4.515,0.00132031008691978
-4.51375,0.00123814539230725
-4.5125,0.00115599962031456
-4.51125,0.00108425103015506
-4.51,0.00102988886743611
-4.50875,0.000995166627357313
-4.5075,0.000977357456444836
-4.50625,0.000969575294822487
-4.505,0.000962432653608417
-4.50375,0.000946229446986897
-4.5025,0.00091325999818713
-4.50125,0.000859706053889807
-4.5,0.000786631464811057
-4.49875,0.000699855573547134
-4.4975,0.000608779044078007
-4.49625,0.000524417664230374
-4.495,0.000457019251626978
-4.49375,0.000413780095206991
-4.4925,0.000397234236846295
-4.49125,0.000404705407866621
-4.49,0.000428875300324038
-4.48875,0.000459273825327104
-4.4875,0.000484399774355105
-4.48625,0.00049409722255718
-4.485,0.000481688310778248
-4.48375,0.000445341874602534
-4.4825,0.000388357549820127
-4.48125,0.000318350015125857
-4.48,0.000245536796367624
-4.47875,0.000180456619780435
-4.4775,0.000131582897860482
-4.47625,0.000103408697873797
-4.475,9.54847150767403e-05
-4.47375,0.000102581803447398
-4.4725,0.000115852367047905
-4.47125,0.000124728520095276
-4.47,0.000119223840975852
-4.46875,9.21821886975062e-05
-4.4675,4.0932339352217e-05
-4.46625,-3.20688390982299e-05
-4.465,-0.000119725121521555
-4.46375,-0.000211776911553674
-4.4625,-0.000296970469602578
-4.46125,-0.000365496839301915
-4.46,-0.000411139855930645
-4.45875,-0.000432588139857667
-4.4575,-0.000433626643024697
-4.45625,-0.000422254376831607
-4.455,-0.000408964642783142
-4.45375,-0.000404498200363334
-4.4525,-0.000417484363053835
-4.45125,-0.000452500853715535
-4.45,-0.000509035342760265
-4.44875,-0.000581574358731054
-4.4475,-0.000660752170743176
-4.44625,-0.000735310552579571
-4.445,-0.000794498620891145
-4.44375,-0.000830397166976015
-4.4425,-0.000839590280116966
-4.44125,-0.000823786271750661
-4.44,-0.000789324224514952
-4.43875,-0.000745750914868197
-4.4375,-0.000703751910772335
-4.43625,-0.000672807755032881
-4.435,-0.000659076617713538
-4.43375,-0.000664029976120367
-4.4325,-0.0006841682123991
-4.43125,-0.000711836799905912
-4.43,-0.000736942598561602
-4.42875,-0.000749241277532443
-4.4275,-0.000740724109149451
-4.42625,-0.000707520770815948
-4.425,-0.000650835676099522
-4.42375,-0.000576750592599993
-4.4225,-0.000495023733618029
-4.42125,-0.000417150344604279
-4.42,-0.00035402101195566
-4.41875,-0.000313636858162259
-4.4175,-0.000299422145136341
-4.41625,-0.000309548064495255
-4.415,-0.000337386508590302
-4.41375,-0.000372951838633434
-4.4125,-0.000405042299347236
-4.41125,-0.00042366395612745
-4.41,-0.000422181333702263
-4.40875,-0.00039865092010389
-4.4075,-0.000356050667964224
-4.40625,-0.000301446619669679
-4.405,-0.000244325754652965
-4.40375,-0.00019440043926774
-4.4025,-0.00015930047364838
-4.40125,-0.000142688303673953
-4.4,-0.00014328129116789
-4.39875,-0.000155000973449521
-4.3975,-0.00016817466755773
-4.39625,-0.000171535410546411
-4.395,-0.000154642208889313
-4.39375,-0.000110192863895395
-4.3925,-3.56455174545114e-05
-4.39125,6.62390740851952e-05
-4.39,0.000187977447195721
-4.38875,0.00031886411514282
-4.3875,0.000447102002682865
-4.38625,0.000562189929473961
-4.385,0.000657066516695294
-4.38375,0.000729486771412949
-4.3825,0.000782307480018063
-4.38125,0.000822661964853393
-4.38,0.000860224897589196
-4.37875,0.000904898289836265
-4.3775,0.000964395826611695
-4.37625,0.00104231455340031
-4.375,0.00113717853277291
-4.37375,0.00124262129062321
-4.3725,0.00134857706410915
-4.37125,0.00144321704475439
-4.37,0.00151529478289458
-4.36875,0.00155644020221447
-4.3675,0.00156285988303074
-4.36625,0.00153602917113179
-4.365,0.00148225716652749
-4.36375,0.00141126581615921
-4.3625,0.00133407000900672
-4.36125,0.00126057340940554
-4.36,0.001197432999365
-4.35875,0.0011467348420331
-4.3575,0.00110576877231214
-4.35625,0.00106786165885204
-4.355,0.00102403877439505
-4.35375,0.000965205671973141
-4.3525,0.000884435241883125
-4.35125,0.00077882986087225
-4.35,0.000650482331809756
-4.34875,0.000506321335124436
-4.3475,0.000356918885559655
-4.34625,0.000214513621561462
-4.345,9.06210927066034e-05
-4.34375,-6.2558645055332e-06
-4.3425,-7.22462171241357e-05
-4.34125,-0.000108673188812789
-4.34,-0.000121509983335899
-4.33875,-0.000119923942458362
-4.3375,-0.000114198507854814
-4.33625,-0.000113405488579887
-4.335,-0.000123326625458838
-4.33375,-0.000145143833542983
-4.3325,-0.000175213840574499
-4.33125,-0.000205935826351371
-4.33,-0.000227502122878233
-4.32875,-0.000230196217276271
-4.3275,-0.000206760378563989
-4.32625,-0.00015424822305575
-4.325,-7.48895561325464e-05
-4.32375,2.41814935713599e-05
-4.3225,0.000132189136351152
-4.32125,0.000236697604611128
-4.32,0.000325974962748816
-4.31875,0.000391280029864283
-4.3175,0.000428532926019984
-4.31625,0.000438961347182803
-4.315,0.000428614259974811
-4.31375,0.000406894262275568
-4.3125,0.000384400929318463
-4.31125,0.000370502050812575
-4.31,0.000371186394779938
-4.30875,0.0003877385488708
-4.3075,0.00041651998444075
-4.30625,0.00044981503796088
-4.305,0.000477513871994362
-4.30375,0.000489326738132308
-4.3025,0.000477112101487599
-4.30125,0.000436783082437697
-4.3,0.000369310205721514
-4.29875,0.000280601951531042
-4.2975,0.000180337839418963
-4.29625,8.00073531776659e-05
-4.295,-9.47217981762776e-06
-4.29375,-8.00435719109695e-05
-4.2925,-0.000128132224132185
-4.29125,-0.000155215224378872
-4.29,-0.000167283102092546
-4.28875,-0.000173385151254132
-4.2875,-0.000183546593784925
-4.28625,-0.000206433655364544
-4.285,-0.000247270914804272
-4.28375,-0.000306532934106284
-4.2825,-0.000379724887167403
-4.28125,-0.00045825886514375
-4.28,-0.000531215442913734
-4.27875,-0.000587656906241872
-4.2775,-0.000619018758778174
-4.27625,-0.000620997422919217
-4.275,-0.000594458133944543
-4.27375,-0.000545205783265981
-4.2725,-0.000482757551551268
-4.27125,-0.000418388461928477
-4.27,-0.000362791791167702
-4.26875,-0.000323818014119091
-4.2675,-0.000304831493395957
-4.26625,-0.000304089648172435
-4.265,-0.000315250834695253
-4.26375,-0.000328857814350074
-4.2625,-0.000334499059308913
-4.26125,-0.000323222242296811
-4.26,-0.000289640738414539
-4.25875,-0.000233196875701435
-4.2575,-0.000158310711782574
-4.25625,-7.3469961664644e-05
-4.255,1.05008329694456e-05
-4.25375,8.26812538826365e-05
-4.2525,0.000134387659334981
-4.25125,0.0001610641981558
-4.25,0.000163255068493913
-4.24875,0.000146445738411435
-4.2475,0.000119853491969859
-4.24625,9.44251673758653e-05
-4.245,8.04216242155589e-05
-4.24375,8.51139168858038e-05
-4.2425,0.000111169038270886
-4.24125,0.000156108853588152
-4.24,0.000212884849012352
-4.23875,0.00027136870644395
-4.2375,0.000320467852577444
-4.23625,0.00035049134322068
-4.235,0.000355263567862229
-4.23375,0.000333464657018345
-4.2325,0.000288882394193584
-4.23125,0.000229566851361455
-4.23,0.00016609561959461
-4.22875,0.000109281673451538
-4.2275,6.77957864884232e-05
-4.22625,4.62830192002052e-05
-4.225,4.44474439625429e-05
-4.22375,5.72635548122721e-05
-4.2225,7.6178973446237e-05
-4.22125,9.10408005627414e-05
-4.22,9.24056000783275e-05
-4.21875,7.37688508563344e-05
-4.2175,3.31727206909548e-05
-4.21625,-2.62133012207167e-05
-4.215,-9.66438560477804e-05
-4.21375,-0.000167326787442283
-4.2125,-0.000226630673224781
-4.21125,-0.000264540475121908
-4.21,-0.00027479502537019
-4.20875,-0.000256167148180949
-4.2075,-0.000212618877980663
-4.20625,-0.000152391960600293
-4.205,-8.62718994951852e-05
-4.20375,-2.5333872682963e-05
-4.2025,2.14107688912089e-05
-4.20125,4.89307007535247e-05
-4.2,5.71743198686124e-05
-4.19875,5.09414475045228e-05
-4.1975,3.87076486630162e-05
-4.19625,3.06563317933319e-05
-4.195,3.6293699555631e-05
-4.19375,6.21673576407173e-05
-4.1925,0.000110264392051879
-4.19125,0.00017747401976836
-4.19,0.000256161813107476
-4.18875,0.000335659579937911
-4.1875,0.000404380937339993
-4.18625,0.000452186355542939
-4.185,0.000472494674753673
-4.18375,0.000463622739352379
-4.1825,0.000429041720977066
-4.18125,0.000376541740819545
-4.18,0.000316508157393295
-4.17875,0.000259634859056129
-4.1775,0.000214541563213248
-4.17625,0.000185874216611223
-4.175,0.000173366880347187
-4.17375,0.000172029703937467
-4.1725,0.0001733323489434
-4.17125,0.000167117358705197
-4.17,0.000143904043017879
-4.16875,9.71192407898614e-05
-4.1675,2.47145296984237e-05
-4.16625,-7.02358758428771e-05
-4.165,-0.000180063025077449
-4.16375,-0.000294003746881404
-4.1625,-0.000400375719647794
-4.16125,-0.000489000219773205
-4.16,-0.000553312100957811
-4.15875,-0.000591621621913345
-4.1575,-0.000607260078027487
-4.15625,-0.000607668169508005
-4.155,-0.00060266726205486
-4.15375,-0.00060222570321477
-4.1525,-0.00061414045342226
-4.15125,-0.000642168165657996
-4.15,-0.000685080407172795
-4.14875,-0.000736850769931549
-4.1475,-0.00078789003015435
-4.14625,-0.000827068666358332
-4.145,-0.000844142231668088
-4.14375,-0.000832049637576919
-4.1425,-0.000788507490739524
-4.14125,-0.000716523840028537
-4.14,-0.00062379473278671
-4.13875,-0.00052118522012909
-4.1375,-0.000420586851822272
-4.13625,-0.00033253053934418
-4.135,-0.000264062373720106
-4.13375,-0.000217404732772427
-4.1325,-0.000189713897581524
-4.13125,-0.00017393746173832
-4.13,-0.000160560322067631
-4.12875,-0.000139904691059458
-4.1275,-0.000104507579867831
-4.12625,-5.09913319949073e-05
-4.125,1.9047086126781e-05
-4.12375,9.92807918865443e-05
-4.1225,0.000179889305659671
-4.12125,0.000249514892931758
-4.12,0.000297598255547588
-4.11875,0.000316630331307985
-4.1175,0.00030378115100455
-4.11625,0.000261503536520582
-4.115,0.000197009251112653
-4.11375,0.000120771603688487
-4.1125,4.43490644035979e-05
-4.11125,-2.20488380429264e-05
-4.11,-7.16970956833776e-05
-4.10875,-0.00010265612042409
-4.1075,-0.00011796312853446
-4.10625,-0.000124762683435304
-4.105,-0.000132607439208463
-4.10375,-0.000151237815400587
-4.1025,-0.000188263823113902
-4.10125,-0.00024728854526542
-4.1,-0.000326951756244117
-4.09875,-0.000421102524441785
-4.0975,-0.000520016233401897
-4.09625,-0.000612395490275025
-4.095,-0.000687773927094448
-4.09375,-0.000738797659856637
-4.0925,-0.000762808831308889
-4.09125,-0.000762352770488668
-4.09,-0.000744571769785912
-4.08875,-0.000719689415616532
-4.0875,-0.000698879629988652
-4.08625,-0.000691898602551867
-4.085,-0.00070498295861553
-4.08375,-0.000739530455799041
-4.0825,-0.000791869998974758
-4.08125,-0.000854122939724143
-4.08,-0.000915945515297135
-4.07875,-0.000966821065856737
-4.0775,-0.000998430398881749
-4.07625,-0.00100652083734303
-4.075,-0.000991802886082788
-4.07375,-0.000959721656397788
-4.0725,-0.000919241821507708
-4.07125,-0.000880914143851292
-4.07,-0.000854564731773015
-4.06875,-0.000847073495448972
-4.0675,-0.000860782196648204
-4.06625,-0.000892931924625702
-4.065,-0.000936228097615185
-4.06375,-0.000980374458685929
-4.0625,-0.00101427482381204
-4.06125,-0.00102846976313046
-4.06,-0.00101724113850451
-4.05875,-0.000979849613668585
-4.0575,-0.000920644729837687
-4.05625,-0.000848113463822565
-4.055,-0.000773111301824085
-4.05375,-0.00070659259925242
-4.0525,-0.000657266077200122
-4.05125,-0.000629711641773811
-4.05,-0.000623429517616919
-4.04875,-0.000633022627375653
-4.0475,-0.000649422603178522
-4.04625,-0.000661897042911359
-4.045,-0.000660456295749488
-4.04375,-0.000638134249082469
-4.0425,-0.000592569040485
-4.04125,-0.000526507488139681
-4.04,-0.000447196083979459
-4.03875,-0.000364860951977421
-4.0375,-0.000290572719461419
-4.03625,-0.000233880393772689
-4.035,-0.000200723165139768
-4.03375,-0.000192138001791536
-4.0325,-0.00020406835091938
-4.03125,-0.000228274009936467
-4.03,-0.000254128257072637
-4.02875,-0.000270960307351264
-4.0275,-0.000270455113633674
-4.02625,-0.000248519989007981
-4.025,-0.000206150050757619
-4.02375,-0.000149152278786377
-4.0225,-8.68790897671892e-05
-4.02125,-3.02472536603452e-05
-4.02,1.06118883037838e-05
-4.01875,2.86021337980447e-05
-4.0175,2.12729733456897e-05
-4.01625,-8.60432578118122e-06
-4.015,-5.3588587223669e-05
-4.01375,-0.000103088801450436
-4.0125,-0.000145555750252605
-4.01125,-0.000170922496551397
-4.01,-0.000172735896772423
-4.00875,-0.000149443658791279
-4.0075,-0.000104565949454711
-4.00625,-4.58052351203384e-05
-4.005,1.6670245803875e-05
-4.00375,7.24577343341823e-05
-4.0025,0.000113241626011657
-4.00125,0.000134668084268183
-4,0.000137300725276993
-3.99875,0.000126457111544266
-3.9975,0.000111014699786268
-3.99625,0.000101443557071284
-3.995,0.00010743973558506
-3.99375,0.000135677360006469
-3.9925,0.000188249164888544
-3.99125,0.000262171117581098
-3.99,0.000349989563854687
-3.98875,0.000441290668121621
-3.9875,0.000524820139943059
-3.98625,0.000590834139349656
-3.985,0.000633176715274517
-3.98375,0.0006505697125145
-3.9825,0.000646814113848349
-3.98125,0.000629906393716804
-3.98,0.00061028320883646
-3.97875,0.000598527721663996
-3.9775,0.000603009798890144
-3.97625,0.000628036049974239
-3.975,0.000672973084978133
-3.97375,0.000732489517533713
-3.9725,0.000797774224250529
-3.97125,0.000858461767473567
-3.97,0.000904923685368148
-3.96875,0.000930460195854606
-3.9675,0.000932855288103508
-3.96625,0.000914900375510104
-3.965,0.000883793066294895
-3.96375,0.000849574207998024
-3.9625,0.000822911113037244
-3.96125,0.0008126679301359
-3.96,0.000823834286663124
-3.95875,0.000856341057191896
-3.9575,0.000905009542543857
-3.95625,0.000960555151995282
-3.955,0.00101139653458617
-3.95375,0.00104595552933714
-3.9525,0.00105502611744362
-3.95125,0.00103367892146147
-3.95,0.000982232476026353
-3.94875,0.000906091713037616
-3.9475,0.000814541175738484
-3.94625,0.000718750170875672
-3.945,0.000629366503575078
-3.94375,0.000554221114384502
-3.9425,0.000496717231516005
-3.94125,0.000455283014311957
-3.94,0.000423929664152393
-3.93875,0.00039371845204137
-3.9375,0.000354847057710263
-3.93625,0.000298975352314824
-3.935,0.000221282077025763
-3.93375,0.000121734197977457
-3.9325,5.26566750756486e-06
-3.93125,-0.000119132006259567
-3.93,-0.000240194547615603
-3.92875,-0.000346709404947706
-3.9275,-0.000429901365753815
-3.92625,-0.000485295707743116
-3.925,-0.000513590572628213
-3.92375,-0.000520392297756133
-3.9225,-0.000514958532889363
-3.92125,-0.000508222378075456
-3.92,-0.000510444550559429
-3.91875,-0.000528965047323801
-3.9175,-0.000566594625755953
-3.91625,-0.000621041118648323
-3.915,-0.000685465341133792
-3.91375,-0.000750009303388101
-3.9125,-0.000803997344264228
-3.91125,-0.000838375304147653
-3.91,-0.000847816276783621
-3.90875,-0.000831957092342108
-3.9075,-0.000795509099164136
-3.90625,-0.000747312505954345
-3.905,-0.000698575623131479
-3.90375,-0.000660609514238889
-3.9025,-0.000642480937560105
-3.90125,-0.000649120884362743
-3.9,-0.000680360302671473
-3.89875,-0.000731093620424497
-3.8975,-0.000792481933449851
-3.89625,-0.000853934761650772
-3.895,-0.000905486578541139
-3.89375,-0.000940040803358691
-3.8925,-0.000954911746880506
-3.89125,-0.000952298266552399
-3.89,-0.00093866103868462
-3.88875,-0.000923209789071184
-3.8875,-0.000915796111776221
-3.88625,-0.000924595442655993
-3.885,-0.000954087076683092
-3.88375,-0.00100384536305929
-3.8825,-0.00106843515215404
-3.88125,-0.00113839704614465
-3.88,-0.00120209882292504
-3.87875,-0.00124810766586239
-3.8775,-0.00126759566468389
-3.87625,-0.00125619245311214
-3.875,-0.00121482657919832
-3.87375,-0.00114942589516681
-3.8725,-0.00106963224796941
-3.87125,-0.000986804800750274
-3.87,-0.000911657660511304
-3.86875,-0.000852004063689943
-3.8675,-0.00081114772347439
-3.86625,-0.000787312396614062
-3.865,-0.000774197112261812
-3.86375,-0.000762493333092373
-3.8625,-0.000742062444186845
-3.86125,-0.000704341735499644
-3.86,-0.000644414068177846
-3.85875,-0.000562211417733283
-3.8575,-0.000462598432729937
-3.85625,-0.000354406369159401
-3.855,-0.000248662271043252
-3.85375,-0.000156329955153164
-3.8525,-8.59901009607631e-05
-3.85125,-4.19961999002031e-05
-3.85,-2.3572661124804e-05
-3.84875,-2.50480386562898e-05
-3.8475,-3.71279386215708e-05
-3.84625,-4.89405722266186e-05
-3.845,-5.04649903696731e-05
-3.84375,-3.48080432654875e-05
-3.8425,2.42190124806115e-07
-3.84125,5.17489666145622e-05
-3.84,0.000112268155967629
-3.83875,0.000171390490123733
-3.8375,0.000217890842791376
-3.83625,0.00024210238898216
-3.835,0.00023800684664711
-3.83375,0.00020452593468949
-3.8325,0.000145715883687389
-3.83125,6.9870897818455e-05
-3.83,-1.22505237080512e-05
-3.82875,-8.97404398639773e-05
-3.8275,-0.000153918819918367
-3.82625,-0.000200191766699963
-3.825,-0.000228926476011598
-3.82375,-0.000245199641804202
-3.8225,-0.00025756343452618
-3.82125,-0.000276099342854858
-3.82,-0.000310104156036524
-3.81875,-0.000365877345832657
-3.8175,-0.000445146960513674
-3.81625,-0.000544523944344411
-3.815,-0.000656074142292132
-3.81375,-0.00076884774108948
-3.8125,-0.0008710690253274
-3.81125,-0.000952560314092613
-3.81,-0.00100684024861795
-3.80875,-0.00103236663938218
-3.8075,-0.00103266400252405
-3.80625,-0.00101539846920375
-3.805,-0.000990640111347687
-3.80375,-0.000968628040409552
-3.8025,-0.000957466076294514
-3.80125,-0.000961285291668615
-3.8,-0.000979337448263024
-3.79875,-0.00100620984291208
-3.7975,-0.0010330653364037
-3.79625,-0.0010496425217939
-3.795,-0.00104663179487753
-3.79375,-0.00101790164471326
-3.7925,-0.000962009360120102
-3.79125,-0.000882635141021684
-3.79,-0.000787915352017478
-3.78875,-0.000688882190951611
-3.7875,-0.00059730544829336
-3.78625,-0.000523320702241186
-3.785,-0.000473353739300232
-3.78375,-0.000448855306271655
-3.7825,-0.000446141454961508
-3.78125,-0.000457328144505992
-3.78,-0.000472138387459157
-3.77875,-0.000480236203550566
-3.7775,-0.000473599366032397
-3.77625,-0.000448347260433669
-3.775,-0.000405569980775639
-3.77375,-0.000351031823274673
-3.7725,-0.000293904249961893
-3.77125,-0.000244800877201931
-3.77,-0.000213458413119707
-3.76875,-0.000206533981874268
-3.7675,-0.000226056516251538
-3.76625,-0.000268919470034881
-3.765,-0.000327499018942213
-3.76375,-0.000391230862332795
-3.7625,-0.000448836818366181
-3.76125,-0.000490755563120784
-3.76,-0.000511201017255515
-3.75875,-0.000509322933957709
-3.7575,-0.000489235025203767
-3.75625,-0.000458999241376875
-3.755,-0.000428819613981694
-3.75375,-0.000408765092231059
-3.7525,-0.000406449850771603
-3.75125,-0.000425205617029985
-3.75,-0.000463206156954565
-3.74875,-0.000513730580724811
-3.7475,-0.000566466271165022
-3.74625,-0.000609581026166562
-3.745,-0.000632168257314864
-3.74375,-0.00062652472846952
-3.7425,-0.000589689363583741
-3.74125,-0.000523891243798737
-3.74,-0.000435896721279793
-3.73875,-0.000335470283273408
-3.7375,-0.000233244953471004
-3.73625,-0.000138385150454303
-3.735,-5.65504051431849e-05
-3.73375,1.13286780063166e-05
-3.7325,6.91698291228577e-05
-3.73125,0.000124766353009677
-3.73,0.000187945373704205
-3.72875,0.000268209549757231
-3.7275,0.000372362753026406
-3.72625,0.000502713008919643
-3.725,0.000656304239926309
-3.72375,0.000825291341097214
-3.7225,0.00099829020087149
-3.72125,0.00116242110316961
-3.72,0.00130569764833089
-3.71875,0.00141929145629306
-3.7175,0.0014991386056564
-3.71625,0.00154650398685658
-3.715,0.00156742012391442
-3.71375,0.00157116454275718
-3.7125,0.00156807684906319
-3.71125,0.00156714818478594
-3.71,0.00157394823211964
-3.70875,0.00158941651155787
-3.7075,0.00160976679552959
-3.70625,0.00162743172741706
-3.705,0.00163280360430391
-3.70375,0.0016164558838064
-3.7025,0.00157141826622018
-3.70125,0.00149497075194853
-3.7,0.00138949670576664
-3.69875,0.00126220906613887
-3.6975,0.00112384810540905
-3.69625,0.000986617102927632
-3.695,0.000861745750182876
-3.69375,0.000757216285633704
-3.6925,0.000676223676430445
-3.69125,0.000616728217583139
-3.69,0.000572118185723041
-3.68875,0.000532770583669391
-3.6875,0.000488212046119098
-3.68625,0.000429492980836246
-3.685,0.00035126306582854
-3.68375,0.000253036160276639
-3.6825,0.000139354927152151
-3.68125,1.88698994229665e-05
-3.68,-9.74469936614056e-05
-3.67875,-0.000198614128647066
-3.6775,-0.000275995615155928
-3.67625,-0.000325121091709441
-3.675,-0.000346515910528085
-3.67375,-0.000345412160715181
-3.6725,-0.000330494099091529
-3.67125,-0.000311951513586413
-3.67,-0.000299186626313818
-3.66875,-0.000298644894751013
-3.6675,-0.000312304110772228
-3.66625,-0.000337203117800914
-3.665,-0.000366088438935811
-3.66375,-0.00038900873510905
-3.6625,-0.00039554730032672
-3.66125,-0.000377246261003698
-3.66,-0.000329646407340866
-3.65875,-0.000253420428047975
-3.6575,-0.000154369001565654
-3.65625,-4.23702080584032e-05
-3.655,7.04646433186899e-05
-3.65375,0.000172109645440121
-3.6525,0.000252987897359815
-3.65125,0.000307843901158956
-3.65,0.000336664716450695
-3.64875,0.000344465339581929
-3.6475,0.000340037727506978
-3.64625,0.000333928182741787
-3.645,0.000336027624548882
-3.64375,0.000353303639513715
-3.6425,0.000388244103718636
-3.64125,0.000438375612927669
-3.64,0.000496882095127804
-3.63875,0.000554118337015176
-3.6375,0.000599724707811458
-3.63625,0.000624957961545702
-3.635,0.000624726832382955
-3.63375,0.000598821615373084
-3.6325,0.000552049389828151
-3.63125,0.000493288576794759
-3.63,0.00043367917194199
-3.62875,0.00038428672055801
-3.6275,0.000353723672897043
-3.62625,0.000346311843740881
-3.625,0.000361243609648919
-3.62375,0.000392874573448278
-3.6225,0.000431996748729617
-3.62125,0.00046781857056145
-3.62,0.000490303000172832
-3.61875,0.00049239030231161
-3.6175,0.000471569838188425
-3.61625,0.000430417863155181
-3.615,0.000376018594395862
-3.61375,0.000318432543938934
-3.6125,0.000268513777275403
-3.61125,0.000235509700714401
-3.61,0.000225007699028056
-3.60875,0.000237751236541276
-3.6075,0.000269568340517837
-3.60625,0.000312335389293259
-3.605,0.000355731321381981
-3.60375,0.000389467551433226
-3.6025,0.000405566977186815
-3.60125,0.000400158444028344
-3.6,0.000374328961954371
-3.59875,0.000333851039207281
-3.5975,0.000287887470820566
-3.59625,0.000246944244711338
-3.595,0.000220465155327597
-3.59375,0.000214604906666442
-3.5925,0.000230749165783686
-3.59125,0.000265131379233676
-3.59,0.000309553604322599
-3.58875,0.000352992169089583
-3.5875,0.00038378694271695
-3.58625,0.000392026080616755
-3.585,0.000371615052788116
-3.58375,0.000321521855768327
-3.5825,0.000245914732819233
-3.58125,0.000153211909329115
-3.58,5.42652024786325e-05
-3.57875,-3.99816865922591e-05
-3.5775,-0.000120877796086217
-3.57625,-0.000183911547863582
-3.575,-0.000229563337019992
-3.57375,-0.000263032020904036
-3.5725,-0.000292986778520165
-3.57125,-0.000329617118901552
-3.57,-0.000382327489727944
-3.56875,-0.000457547765914463
-3.5675,-0.0005571930254123
-3.56625,-0.000678152379723885
-3.565,-0.000812886621916066
-3.56375,-0.000950970376540918
-3.5625,-0.00108127925537067
-3.56125,-0.00119439011123808
-3.56,-0.00128462953765244
-3.55875,-0.0013512459566463
-3.5575,-0.00139846024867364
-3.55625,-0.00143447130343182
-3.555,-0.0014696632198615
-3.55375,-0.00151433365565796
-3.5525,-0.00157637687445851
-3.55125,-0.00165946077878554
-3.55,-0.00176215634755066
-3.54875,-0.00187819923860177
-3.5475,-0.00199777952865042
-3.54625,-0.00210959040986583
-3.545,-0.00220324578398672
-3.54375,-0.00227153355127472
-3.5425,-0.00231193640396677
-3.54125,-0.00232706487116445
-3.54,-0.00232398658463203
-3.53875,-0.0023126639148081
-3.5375,-0.00230379875019511
-3.53625,-0.00230647388935115
-3.535,-0.00232610446640738
-3.53375,-0.00236320823207383
-3.5325,-0.00241327764780564
-3.53125,-0.00246773402954165
-3.53,-0.00251574279542955
-3.52875,-0.00254654885797911
-3.5275,-0.00255184702701435
-3.52625,-0.00252760488042231
-3.525,-0.00247488536620452
-3.52375,-0.00239954247562031
-3.5225,-0.00231094427854277
-3.52125,-0.00221999731847146
-3.52,-0.00213682123283637
-3.51875,-0.00206854849852226
-3.5175,-0.00201778579464823
-3.51625,-0.00198211692124352
-3.515,-0.00195472326955237
-3.51375,-0.00192595158574643
-3.5125,-0.00188552253941919
-3.51125,-0.00182494015795219
-3.51,-0.00173953227783241
-3.50875,-0.00162960098069412
-3.5075,-0.00150044768087542
-3.50625,-0.00136135637892284
-3.505,-0.00122378295895766
-3.50375,-0.00109906791772105
-3.5025,-0.000996102705904808
-3.50125,-0.000919485478231388
-3.5,-0.000868623539717005
-3.49875,-0.000837964607263759
-3.4975,-0.000818256730622487
-3.49625,-0.000798570859399626
-3.495,-0.000768698151992672
-3.49375,-0.000721390532086817
-3.4925,-0.000653877728740731
-3.49125,-0.000568306534719229
-3.49,-0.000471086641758454
-3.48875,-0.000371354989002143
-3.4875,-0.000278857212630752
-3.48625,-0.000201636136057035
-3.485,-0.000144040879313993
-3.48375,-0.000105563568541973
-3.4825,-8.07825093682619e-05
-3.48125,-6.03862558577839e-05
-3.48,-3.30497008901184e-05
-3.47875,1.21895538117902e-05
-3.4775,8.35507797077503e-05
-3.47625,0.00018471197465565
-3.475,0.000314037686324634
-3.47375,0.000464943108585562
-3.4725,0.000627227626229904
-3.47125,0.000789098915302482
-3.47,0.000939536926799582
-3.46875,0.00107052133655417
-3.4675,0.00117858711736333
-3.46625,0.00126533273183494
-3.465,0.00133680923882238
-3.46375,0.0014019627876321
-3.4625,0.00147043799560264
-3.46125,0.0015501823325643
-3.46,0.00164542071270647
-3.45875,0.0017555204722663
-3.4575,0.00187498099884251
-3.45625,0.0019944626528375
-3.455,0.00210260503296398
-3.45375,0.00218831569620177
-3.4525,0.00224309758032037
-3.45125,0.00226287737467549
-3.45,0.00224887672420165
-3.44875,0.00220734541141404
-3.4475,0.00214825915965434
-3.44625,0.00208325155176777
-3.445,0.00202317332887618
-3.44375,0.00197581646058557
-3.4425,0.00194437261071398
-3.44125,0.00192697937980353
-3.44,0.00191736876969708
-3.43875,0.00190640706010144
-3.4375,0.00188422968759596
-3.43625,0.00184258179281172
-3.435,0.00177684972984286
-3.43375,0.00168727520881732
-3.4325,0.00157907107861378
-3.43125,0.00146145941348226
-3.43,0.00134585293514798
-3.42875,0.00124352184398855
-3.4275,0.00116323270766365
-3.42625,0.00110944124657963
-3.425,0.00108148804229478
-3.42375,0.00107391934884699
-3.4225,0.00107777586145562
-3.42125,0.00108257406357836
-3.42,0.00107862947297479
-3.41875,0.00105924488617439
-3.4175,0.00102222829269703
-3.41625,0.000970365730279949
-3.415,0.000910778685034391
-3.41375,0.000853340060475408
-3.4125,0.000808458813527544
-3.41125,0.000784677291149129
-3.41,0.000786652116244399
-3.40875,0.000814034376559829
-3.4075,0.000861475681077307
-3.40625,0.000919669885049355
-3.405,0.000977179757182367
-3.40375,0.00102272956006241
-3.4025,0.00104753046081863
-3.40125,0.00104710080302922
-3.4,0.00102212689050756
-3.39875,0.000978189735990035
-3.3975,0.000924464643599429
-3.39625,0.000871663900365243
-3.395,0.000829616353213411
-3.39375,0.00080502260798601
-3.3925,0.000799954374518873
-3.39125,0.000811446106205785
-3.39,0.000832186705114989
-3.38875,0.000852095456164626
-3.3875,0.000860483102603727
-3.38625,0.000848407745986367
-3.385,0.000810711006294612
-3.38375,0.000747227446131054
-3.3825,0.00066288909850292
-3.38125,0.000566749368998818
-3.38,0.000470150285774182
-3.37875,0.000384377283873055
-3.3775,0.000318290090652602
-3.37625,0.000276512398352254
-3.375,0.000258627611948694
-3.37375,0.000259499407035923
-3.3725,0.00027055758938545
-3.37125,0.000281773317201586
-3.37,0.000283972343175037
-3.36875,0.000271008455178571
-3.3675,0.000241262766301652
-3.36625,0.000198096693787474
-3.365,0.000149189290529044
-3.36375,0.000104931477479664
-3.3625,7.6185980232756e-05
-3.36125,7.18590828804567e-05
-3.36,9.68601110355103e-05
-3.35875,0.000150968628885296
-3.3575,0.000228837009847205
-3.35625,0.000321037100213233
-3.355,0.000415897629698843
-3.35375,0.000501809182626532
-3.3525,0.000569560577767519
-3.35125,0.000614170048453961
-3.35,0.000635761066166853
-3.34875,0.000639310261942191
-3.3475,0.000633372842976609
-3.34625,0.000628053375361821
-3.345,0.000632613239215193
-3.34375,0.00065324999210768
-3.3425,0.000691613182144496
-3.34125,0.000744402276916693
-3.34,0.000804054605042279
-3.33875,0.000860309325001227
-3.3375,0.000902349516111825
-3.33625,0.000921130992207727
-3.335,0.000911381754428873
-3.33375,0.000872766632816223
-3.3325,0.000809944042844991
-3.33125,0.000731545284286232
-3.33,0.000648306862566255
-3.32875,0.000570708941892804
-3.3275,0.000506618554712804
-3.32625,0.000459523155132579
-3.325,0.000427792122635168
-3.32375,0.000405070156570456
-3.3225,0.000381633959956655
-3.32125,0.000346433262148285
-3.32,0.000289462395209325
-3.31875,0.000203981598101651
-3.3175,8.8052267413869e-05
-3.31625,-5.49853993167322e-05
-3.315,-0.000217159943667379
-3.31375,-0.000387466469193453
-3.3125,-0.000554103955491341
-3.31125,-0.000706905914017435
-3.31,-0.000839390539356121
-3.30875,-0.000949912772379227
-3.3075,-0.00104169229848655
-3.30625,-0.00112180986132272
-3.305,-0.00119942508977416
-3.30375,-0.00128353719812892
-3.3025,-0.00138072284411479
-3.30125,-0.00149338692248427
-3.3,-0.00161897454743679
-3.29875,-0.00175031200216803
-3.2975,-0.00187696549993978
-3.29625,-0.00198734357847873
-3.295,-0.00207114103061725
-3.29375,-0.00212157582397222
-3.2925,-0.00213685040023637
-3.29125,-0.00212050194387869
-3.29,-0.00208064849957534
-3.28875,-0.00202835474052804
-3.2875,-0.00197542063118145
-3.28625,-0.00193198756067328
-3.285,-0.0019044783407726
-3.28375,-0.00189437509114055
-3.2825,-0.00189810844053184
-3.28125,-0.00190803048707921
-3.28,-0.00191424444979587
-3.27875,-0.00190694131469716
-3.2775,-0.00187874827854323
-3.27625,-0.00182650414998846
-3.275,-0.00175202002907456
-3.27375,-0.00166171594320579
-3.2725,-0.0015653001342435
-3.27125,-0.00147377056237991
-3.27,-0.0013970917281883
-3.26875,-0.00134202485991374
-3.2675,-0.00131064372691228
-3.26625,-0.00129990400829847
-3.265,-0.00130233038280457
-3.26375,-0.00130764372458854
-3.2625,-0.00130501512114929
-3.26125,-0.00128549766490798
-3.26,-0.00124406039065183
-3.25875,-0.00118070811692138
-3.2575,-0.00110046418463196
-3.25625,-0.00101230998788174
-3.255,-0.000927335135779042
-3.25375,-0.000856422425536125
-3.2525,-0.000807906939386959
-3.25125,-0.00078574944000835
-3.25,-0.000788675474605908
-3.24875,-0.000810451262326992
-3.2475,-0.000841187951405186
-3.24625,-0.000869402433501377
-3.245,-0.000884438762085996
-3.24375,-0.000878711398428968
-3.2425,-0.000849205996563681
-3.24125,-0.000797895767497026
-3.24,-0.000731069639217901
-3.23875,-0.0006577894231315
-3.2375,-0.000587776528005157
-3.23625,-0.000529120055605181
-3.235,-0.000486318666042551
-3.23375,-0.0004591558118516
-3.2325,-0.000442677375275836
-3.23125,-0.000428239918526838
-3.23,-0.000405397665003068
-3.22875,-0.000364270312556171
-3.2275,-0.000297885115719618
-3.22625,-0.000203902698132952
-3.225,-8.5293086174358e-05
-3.22375,5.01303307341872e-05
-3.2225,0.000191137630333179
-3.22125,0.000325181671302316
-3.22,0.000440810370941464
-3.21875,0.000529908349018095
-3.2175,0.000589233519511621
-3.21625,0.000620883348740351
-3.215,0.000631631179519735
-3.21375,0.000631313039876511
-3.2125,0.00063057860983723
-3.21125,0.0006384542362796
-3.21,0.000660291786352766
-3.20875,0.00069661873475948
-3.2075,0.000743113671901924
-3.20625,0.000791615832987535
-3.205,0.000831918228525284
-3.20375,0.000854024390279288
-3.2025,0.000850432569759127
-3.20125,0.000817908376690567
-3.2,0.000758296421928781
-3.19875,0.00067820468018086
-3.1975,0.000587674575987511
-3.19625,0.000498110136598396
-3.195,0.000419862394583997
-3.19375,0.000360008339772528
-3.1925,0.000320887454158518
-3.19125,0.00029973339822207
-3.19,0.000289399645471373
-3.18875,0.000279959288948956
-3.1875,0.000260877685461401
-3.18625,0.000223364044202317
-3.185,0.000162385597048999
-3.18375,7.78410792995137e-05
-3.1825,-2.5377778512189e-05
-3.18125,-0.000138406300432199
-3.18,-0.000250277477711218
-3.17875,-0.000350287700234811
-3.1775,-0.000430356798698234
-3.17625,-0.000486796765013426
-3.175,-0.000521052997916439
-3.17375,-0.000539315727803357
-3.1725,-0.000551171238243734
-3.17125,-0.000567571632259555
-3.17,-0.00059847590357708
-3.16875,-0.000650642085563373
-3.1675,-0.000726104300398168
-3.16625,-0.000821703238328882
-3.165,-0.000929736261465828
-3.16375,-0.0010395538479036
-3.1625,-0.0011397928570014
-3.16125,-0.00122079829324045
-3.16,-0.00127665721470459
-3.15875,-0.0013063290654078
-3.1575,-0.00131365094352665
-3.15625,-0.0013063126109194
-3.155,-0.00129405497104816
-3.15375,-0.00128641560148937
-3.1525,-0.00129046027478972
-3.15125,-0.00130903934411632
-3.15,-0.00134001466268376
-3.14875,-0.00137661727205056
-3.1475,-0.00140881626983106
-3.14625,-0.00142541846635118
-3.145,-0.00141649473954291
-3.14375,-0.00137558860358153
-3.1425,-0.00130114794930681
-3.14125,-0.0011968549254886
-3.14,-0.00107086638197341
-3.13875,-0.000934187951145596
-3.1375,-0.000798481603705565
-3.13625,-0.000673699466695968
-3.135,-0.000566060605348808
-3.13375,-0.000476874008498465
-3.1325,-0.000402477259246096
-3.13125,-0.000335257654051567
-3.13,-0.000265522322541737
-3.12875,-0.0001838588188846
-3.1275,-8.34810572189535e-05
-3.12625,3.80273108373726e-05
-3.125,0.000178005164663444
-3.12375,0.000329137428570637
-3.1225,0.000480833429895296
-3.12125,0.000621275867612818
-3.12,0.000739783427237971
-3.11875,0.000829005048421211
-3.1175,0.000886413364511589
-3.11625,0.000914734712860529
-3.115,0.000921257957018483
-3.11375,0.000916202198756773
-3.1125,0.000910456769736865
-3.11125,0.000913144518250289
-3.11,0.000929586332801302
-3.10875,0.000960181267157315
-3.1075,0.00100041992437584
-3.10625,0.00104193300689376
-3.105,0.00107431990514947
-3.10375,0.00108743310042936
-3.1025,0.00107367932341721
-3.10125,0.0010297998468729
-3.1,0.000957685515298349
-3.09875,0.000864064213091941
-3.0975,0.000759173841382142
-3.09625,0.000654692206468656
-3.095,0.000561319321391628
-3.09375,0.000486552319807911
-3.0925,0.000433215872556312
-3.09125,0.000399083698155368
-3.09,0.00037758918531306
-3.08875,0.000359407211584484
-3.0875,0.00033460698689557
-3.08625,0.000294979476662997
-3.085,0.00023601933214877
-3.08375,0.000158059011626121
-3.0825,6.62910134115217e-05
-3.08125,-3.0282855248753e-05
-3.08,-0.000120738914949223
-3.07875,-0.000194596553369685
-3.0775,-0.000244155946026715
-3.07625,-0.000266223876947369
-3.075,-0.000262801544717317
-3.07375,-0.000240645803840942
-3.0725,-0.000209883135420878
-3.07125,-0.000181959465855572
-3.07,-0.000167280214906951
-3.06875,-0.000173019703323256
-3.0675,-0.000201629251193471
-3.06625,-0.000250403924731769
-3.065,-0.000312164665031501
-3.06375,-0.000376876153303082
-3.0625,-0.00043388859466419
-3.06125,-0.00047435551607194
-3.06,-0.000493253493019567
-3.05875,-0.000490491815844966
-3.0575,-0.00047089438111903
-3.05625,-0.000443150530787485
-3.055,-0.000417988561907886
-3.05375,-0.000405895413630582
-3.0525,-0.000414821723469211
-3.05125,-0.000448409908570242
-3.05,-0.000505188733133041
-3.04875,-0.000578895237692893
-3.0475,-0.000659809693503461
-3.04625,-0.000736830438147413
-3.045,-0.000799889847460306
-3.04375,-0.000842167860440227
-3.0425,-0.000861539995204875
-3.04125,-0.000860928111610102
-3.04,-0.000847561070240017
-3.03875,-0.000831366915523677
-3.0375,-0.000822797905643309
-3.03625,-0.000830483514791231
-3.035,-0.000859228653845667
-3.03375,-0.000908857489727805
-3.0325,-0.000974168610061032
-3.03125,-0.00104596780533175
-3.03,-0.0011129487867939
-3.02875,-0.00116406947901423
-3.0275,-0.00119092420006347
-3.02625,-0.00118952517140376
-3.025,-0.00116105629796267
-3.02375,-0.00111149645789854
-3.0225,-0.00105028207215306
-3.02125,-0.000988289930895108
-3.02,-0.000935497657904073
-3.01875,-0.000898805251539718
-3.0175,-0.000880549775481067
-3.01625,-0.000878073927954532
-3.015,-0.000884404894903989
-3.01375,-0.000889862890505722
-3.0125,-0.000884286073278674
-3.01125,-0.000859422298049409
-3.01,-0.000810913757969394
-3.00875,-0.000739366439878063
-3.0075,-0.000650292779773386
-3.00625,-0.000553028877739026
-3.005,-0.000458882062516877
-3.00375,-0.00037883301499153
-3.0025,-0.000321232104933801
-3.00125,-0.000290027986572837
-3,-0.000283970964838909
-2.99875,-0.000296948849622902
-2.9975,-0.000319337111653684
-2.99625,-0.000340087729209884
-2.995,-0.000349157695357983
-2.99375,-0.000339735022319901
-2.9925,-0.00030970055530892
-2.99125,-0.00026199334901817
-2.99,-0.000203884138712912
-2.98875,-0.000145375473140544
-2.9875,-9.70292754439772e-05
-2.98625,-6.76203393496884e-05
-2.985,-6.21370628001545e-05
-2.98375,-8.06295941765939e-05
-2.9825,-0.000118166673638735
-2.98125,-0.000165863101387002
-2.98,-0.000212746247214866
-2.97875,-0.000248108821332409
-2.9775,-0.000263849290044987
-2.97625,-0.000256217217358254
-2.975,-0.000226532209233349
-2.97375,-0.000180778709761382
-2.9725,-0.000128249511371012
-2.97125,-7.95208488942694e-05
-2.97,-4.41182667073722e-05
-2.96875,-2.83584985757388e-05
-2.9675,-3.38992318357689e-05
-2.96625,-5.73530441656048e-05
-2.965,-9.10145843002724e-05
-2.96375,-0.00012451382567981
-2.9625,-0.000147077211581773
-2.96125,-0.000149943020765282
-2.96,-0.000128354879101252
-2.95875,-8.26272757033902e-05
-2.9575,-1.807634697276e-05
-2.95625,5.6078324353715e-05
-2.955,0.000128582564458562
-2.95375,0.000188460546318197
-2.9525,0.000227329495667117
-2.95125,0.000241177392250889
-2.95,0.000231162758611128
-2.94875,0.000203280285398871
-2.9475,0.000167011170222009
-2.94625,0.000133235844422308
-2.945,0.000111812428902099
-2.94375,0.000109366771448318
-2.9425,0.000127854677096157
-2.94125,0.000164222336259172
-2.94,0.000211153148991153
-2.93875,0.000258677662191371
-2.9375,0.000296343610141232
-2.93625,0.000315546505495451
-2.935,0.000311499471978789
-2.93375,0.00028434373501134
-2.9325,0.000239142236747131
-2.93125,0.000184800591879406
-2.93,0.000132155280612813
-2.92875,9.1591457666595e-05
-2.9275,7.06972525579036e-05
-2.92625,7.2539498146782e-05
-2.925,9.49860736626362e-05
-2.92375,0.000131162572676707
-2.9225,0.000170863090069152
-2.92125,0.000202629032371482
-2.92,0.000216135093315356
-2.91875,0.000204395755432722
-2.9175,0.000165259701311772
-2.91625,0.000101835346474595
-2.915,2.17971228142266e-05
-2.91375,-6.42424230903594e-05
-2.9125,-0.000144978895443432
-2.91125,-0.000210829621229474
-2.91,-0.000255940760248539
-2.90875,-0.000279282129666306
-2.9075,-0.000284620607346796
-2.90625,-0.00027947384331465
-2.905,-0.000273298944562557
-2.90375,-0.000275241757708138
-2.9025,-0.000291891606251871
-2.90125,-0.000325582915634865
-2.9,-0.000373682368475312
-2.89875,-0.000429009588218635
-2.8975,-0.000481261793005421
-2.89625,-0.000519154560719385
-2.895,-0.000532866056963236
-2.89375,-0.000516233537693878
-2.8925,-0.000468145878187269
-2.89125,-0.000392818912124442
-2.89,-0.00029897784311957
-2.88875,-0.000198176901060542
-2.8875,-0.00010256154304098
-2.88625,-2.24726136471027e-05
-2.885,3.55869381428959e-05
-2.88375,7.01245059305744e-05
-2.8825,8.47118542058948e-05
-2.88125,8.6963561051468e-05
-2.88,8.66755965036472e-05
-2.87875,9.34801431194061e-05
-2.8775,0.000114517852973119
-2.87625,0.000152710319356402
-2.875,0.000206060496260969
-2.87375,0.000268074030861056
-2.8725,0.000329126157531676
-2.87125,0.000378491239533325
-2.87,0.000406676012662982
-2.86875,0.000407571658057
-2.8675,0.00037989483338451
-2.86625,0.0003275642131978
-2.865,0.000258964200870557
-2.86375,0.000185280661672088
-2.8625,0.000118223958325545
-2.86125,6.75922786562681e-05
-2.86,3.92526405470549e-05
-2.85875,3.40471212358759e-05
-2.8575,4.78325634283726e-05
-2.85625,7.25506095319231e-05
-2.855,9.80722369838961e-05
-2.85375,0.000114490260437469
-2.8525,0.000114414835989107
-2.85125,9.47306606745497e-05
-2.85,5.73751857552365e-05
-2.84875,8.98387748614969e-06
-2.8475,-4.04767097639668e-05
-2.84625,-7.98093487909519e-05
-2.845,-9.90146195114654e-05
-2.84375,-9.14980553960178e-05
-2.8425,-5.54936757946071e-05
-2.84125,5.61934681132492e-06
-2.84,8.40901358523275e-05
-2.83875,0.000169432833169312
-2.8375,0.000250622045608806
-2.83625,0.000318446742189766
-2.835,0.000367501304342621
-2.83375,0.000397316278308942
-2.8325,0.000412372506450877
-2.83125,0.000421042698905815
-2.83,0.000433698653565116
-2.82875,0.000460344387564724
-2.8275,0.000508280301048459
-2.82625,0.000580380954384072
-2.825,0.000674408443345529
-2.82375,0.000783447977198272
-2.8225,0.000897288432198498
-2.82125,0.00100446558051928
-2.82,0.00109460776660553
-2.81875,0.00116059668760333
-2.8175,0.0012000131614686
-2.81625,0.00121551663843533
-2.815,0.00121411268796794
-2.81375,0.00120549654652068
-2.8125,0.00119979547372441
-2.81125,0.00120517498068468
-2.81,0.001225893259771
-2.80875,0.00126130184563523
-2.8075,0.0013059786592019
-2.80625,0.00135087102725027
-2.805,0.00138518413672159
-2.80375,0.00139868637946549
-2.8025,0.001383987399674
-2.80125,0.00133825156923349
-2.8,0.00126391349133732
-2.79875,0.00116825002672778
-2.7975,0.00106193869309919
-2.79625,0.000956892845148314
-2.795,0.000863792920940509
-2.79375,0.000789871613371497
-2.7925,0.000737510114709084
-2.79125,0.000703952836468663
-2.79,0.000682108768151965
-2.78875,0.000662204844967112
-2.7875,0.000633984068819037
-2.78625,0.000589046750816596
-2.785,0.000522813658194164
-2.78375,0.000435617534310052
-2.7825,0.000332674279986618
-2.78125,0.000222985191544721
-2.78,0.000117413461086285
-2.77875,2.63014577044104e-05
-2.7775,-4.28571335768066e-05
-2.77625,-8.71033167058073e-05
-2.775,-0.000108641356193525
-2.77375,-0.000114336318495189
-2.7725,-0.000114269693027329
-2.77125,-0.000119643838857292
-2.77,-0.000140401369319245
-2.76875,-0.000183049739653051
-2.7675,-0.0002492203922131
-2.76625,-0.000335310047771715
-2.765,-0.000433244785211364
-2.76375,-0.000532173969097858
-2.7625,-0.000620768988094265
-2.76125,-0.000689662239949731
-2.76,-0.000733442039858646
-2.75875,-0.000751702289719243
-2.7575,-0.000748956059852355
-2.75625,-0.000733532238997049
-2.755,-0.00071571829003837
-2.75375,-0.000705476612979176
-2.7525,-0.000710178349016819
-2.75125,-0.000732892785453381
-2.75,-0.000771666527176745
-2.74875,-0.000819937790951387
-2.7475,-0.00086795690145546
-2.74625,-0.000904925234141761
-2.745,-0.000921434360942123
-2.74375,-0.000911645949428516
-2.7425,-0.000874655361373537
-2.74125,-0.000814735018170782
-2.74,-0.000740492254162903
-2.73875,-0.000663176618344291
-2.7375,-0.000594444147989744
-2.73625,-0.000543981827443636
-2.735,-0.000517514694017171
-2.73375,-0.000515688856925906
-2.7325,-0.000534078658722609
-2.73125,-0.000564267335257866
-2.73,-0.00059575949050499
-2.72875,-0.000618360455090111
-2.7275,-0.000624510352545166
-2.72625,-0.000610987855636039
-2.725,-0.000579569003799036
-2.72375,-0.000536566443986844
-2.7225,-0.000491434773152784
-2.72125,-0.000454727298107351
-2.72,-0.000435764879000352
-2.71875,-0.000440504278784666
-2.7175,-0.000470135124413543
-2.71625,-0.000520752617310915
-2.715,-0.000584144540882956
-2.71375,-0.000649496995000442
-2.7125,-0.000705691208916291
-2.71125,-0.00074372427294839
-2.71,-0.000758669275949159
-2.70875,-0.000750678373572837
-2.7075,-0.000724845199426282
-2.70625,-0.000690051235499285
-2.705,-0.00065706268861787
-2.70375,-0.000636209488972583
-2.7025,-0.000635094175930306
-2.70125,-0.00065686948016746
-2.7,-0.000699516458974155
-2.69875,-0.000756266064439209
-2.6975,-0.000817032819433376
-2.69625,-0.000870569160266231
-2.695,-0.000906918186242461
-2.69375,-0.000919603644313219
-2.6925,-0.00090700169428371
-2.69125,-0.000872593762963672
-2.69,-0.000824137532766161
-2.68875,-0.000771991705684696
-2.6875,-0.000726902524196411
-2.68625,-0.000697656440737636
-2.685,-0.000689122407265484
-2.68375,-0.000701176603907518
-2.6825,-0.000728754884195082
-2.68125,-0.000762976186302428
-2.68,-0.00079308690976043
-2.67875,-0.000808853258757307
-2.6775,-0.000802884736080537
-2.67625,-0.000772305500506642
-2.675,-0.000719366979200104
-2.67375,-0.000650937110036422
-2.6725,-0.000577059282781887
-2.67125,-0.000508870512902832
-2.67,-0.000456242478766936
-2.66875,-0.000425634325194432
-2.6675,-0.000418684672063091
-2.66625,-0.000431886194241167
-2.665,-0.000457378399152152
-2.66375,-0.000484661604148203
-2.6625,-0.000502902466747314
-2.66125,-0.000503360468465853
-2.66,-0.000481348511625353
-2.65875,-0.000437232491134731
-2.6575,-0.000376289825550477
-2.65625,-0.000307554030258355
-2.655,-0.000241912208174339
-2.65375,-0.000189786860326302
-2.6525,-0.000158850540847736
-2.65125,-0.000152312625491774
-2.65,-0.000168207584897681
-2.64875,-0.000199823048513606
-2.6475,-0.000237133355843665
-2.64625,-0.000268947464387011
-2.645,-0.000285351598985948
-2.64375,-0.000279889016707277
-2.6425,-0.000250923969630756
-2.64125,-0.00020188942823624
-2.64,-0.000140454777305351
-2.63875,-7.68490351155555e-05
-2.6375,-2.16484688857789e-05
-2.63625,1.6565846965744e-05
-2.635,3.31567566482981e-05
-2.63375,2.84944052410846e-05
-2.6325,7.89025372966551e-06
-2.63125,-1.95418750838957e-05
-2.63,-4.28485596746719e-05
-2.62875,-5.16489701980638e-05
-2.6275,-3.84754238314597e-05
-2.62625,-4.54453269236519e-07
-2.625,6.00804769700532e-05
-2.62375,0.000136108863257268
-2.6225,0.000217380318912513
-2.62125,0.000292516229060425
-2.62,0.000351389360696741
-2.61875,0.000387290962450401
-2.6175,0.000398358177401642
-2.61625,0.000387919370838628
-2.615,0.000363720948682786
-2.61375,0.00033622961932995
-2.6125,0.000316336680901479
-2.61125,0.000312933280195397
-2.61,0.000330943003657504
-2.60875,0.00037030779091466
-2.6075,0.00042610961307197
-2.60625,0.00048970372196248
-2.605,0.000550598199035503
-2.60375,0.000598748168439426
-2.6025,0.000626815438940656
-2.60125,0.00063185487467393
-2.6,0.000616000356145566
-2.59875,0.000586015190238675
-2.5975,0.00055184403879934
-2.59625,0.000524459090263785
-2.595,0.000513421307967747
-2.59375,0.0005247156207751
-2.5925,0.000559411842526136
-2.59125,0.00061344705589806
-2.59,0.000678488632698666
-2.58875,0.000743641384642356
-2.5875,0.000797691314361674
-2.58625,0.000831480547073952
-2.585,0.000839887934205766
-2.58375,0.000822922482813663
-2.5825,0.000785685673713359
-2.58125,0.000737258300830613
-2.58,0.000688758174553168
-2.57875,0.000650938995087427
-2.5775,0.000631847318377175
-2.57625,0.000635123415155624
-2.575,0.000659356603801259
-2.57375,0.000698563450533417
-2.5725,0.000743597830916769
-2.57125,0.000784203688675337
-2.57,0.00081134586933264
-2.56875,0.000819328343252226
-2.5675,0.000807172048974035
-2.56625,0.000778911319134573
-2.565,0.000742775952084691
-2.56375,0.000709457155435129
-2.5625,0.000689788376275679
-2.56125,0.000692314404061178
-2.56,0.000721337645090544
-2.55875,0.000775935647410936
-2.5575,0.000850126986442668
-2.55625,0.000934056378724914
-2.555,0.00101593062754703
-2.55375,0.00108437100497175
-2.5525,0.00113072986450341
-2.55125,0.00115083030123662
-2.55,0.00114569914789704
-2.54875,0.00112115460737895
-2.5475,0.00108638270217951
-2.54625,0.00105179581573354
-2.545,0.00102659813546428
-2.54375,0.00101662082936
-2.5425,0.00102297974384791
-2.54125,0.00104184994694015
-2.54,0.00106531445262774
-2.53875,0.00108304923667505
-2.5375,0.00108453632417327
-2.53625,0.0010614001775153
-2.535,0.00100934434811626
-2.53375,0.000929199055334049
-2.5325,0.000826839517783054
-2.53125,0.000712035174332221
-2.53,0.000596480998674136
-2.52875,0.000491384451416053
-2.5275,0.000405125024546116
-2.52625,0.000341568297429446
-2.525,0.000299438809834315
-2.52375,0.000272816020914473
-2.5225,0.000252562687058151
-2.52125,0.000228398193644596
-2.52,0.000191252172821712
-2.51875,0.000135406649105261
-2.5175,5.98982768395155e-05
-2.51625,-3.11611071964282e-05
-2.515,-0.000129380399369955
-2.51375,-0.000223806180847837
-2.5125,-0.000303232156795809
-2.51125,-0.000358628717947006
-2.51,-0.000385103376560546
-2.50875,-0.000382896910400465
-2.5075,-0.000357236510017342
-2.50625,-0.000317173429605375
-2.505,-0.000273672892520338
-2.50375,-0.000237291694469883
-2.5025,-0.000215897880942346
-2.50125,-0.000212974256371703
-2.5,-0.000226931296676355
-2.49875,-0.000251560015659908
-2.4975,-0.00027748321497353
-2.49625,-0.00029430918530793
-2.495,-0.000293064720440623
-2.49375,-0.000268347504063782
-2.4925,-0.000219647203113747
-2.49125,-0.000151542138987629
-2.49,-7.28151928850912e-05
-2.48875,5.27077425287722e-06
-2.4875,7.12251711340803e-05
-2.48625,0.000115699919732974
-2.485,0.000133452377964854
-2.48375,0.000124412892835117
-2.4825,9.36194990848052e-05
-2.48125,5.00809520819159e-05
-2.48,4.81869843784248e-06
-2.47875,-3.15383086389774e-05
-2.4775,-5.10870422465067e-05
-2.47625,-5.03290217086739e-05
-2.475,-3.07911630122875e-05
-2.47375,1.47259714651378e-06
-2.4725,3.73057876361843e-05
-2.47125,6.65109225802824e-05
-2.47,8.01823706907135e-05
-2.46875,7.28192717540981e-05
-2.4675,4.36929482511417e-05
-2.46625,-2.86868549397109e-06
-2.465,-5.83104950715498e-05
-2.46375,-0.000111594271955915
-2.4625,-0.000151525241280204
-2.46125,-0.00016918496829586
-2.46,-0.000159880630705564
-2.45875,-0.000124119350562646
-2.4575,-6.74355559779869e-05
-2.45625,7.95695747654123e-07
-2.455,6.92899596198887e-05
-2.45375,0.000127195189852552
-2.4525,0.000166392270525943
-2.45125,0.00018321434271532
-2.45,0.000179158645763011
-2.44875,0.000160456290720146
-2.4475,0.000136636172288681
-2.44625,0.000118376315297573
-2.445,0.000115067478635976
-2.44375,0.000132651779136702
-2.4425,0.000172287303153383
-2.44125,0.000230129939739679
-2.44,0.000298187802068857
-2.43875,0.000366009817892034
-2.4375,0.000422898711151084
-2.43625,0.00046024037810635
-2.435,0.000473425788314251
-2.43375,0.000462881054671476
-2.4325,0.000433972864203191
-2.43125,0.000395852942735275
-2.43,0.000359492217366838
-2.42875,0.000335278534401015
-2.4275,0.000330697080847929
-2.42625,0.000348674951468335
-2.425,0.000386989095789048
-2.42375,0.000438795898944842
-2.4225,0.000494087862005954
-2.42125,0.000541786988857061
-2.42,0.000572106377744698
-2.41875,0.000578685656366441
-2.4175,0.000559974342689673
-2.41625,0.000519528744139343
-2.415,0.00046519572147004
-2.41375,0.000407385021927417
-2.4125,0.000356763793959957
-2.41125,0.000321848698920564
-2.41,0.000307081914626845
-2.40875,0.000311876356737602
-2.4075,0.000330797741524068
-2.40625,0.000354749793280032
-2.405,0.000372894245278308
-2.40375,0.000374972079128105
-2.4025,0.000353574328833218
-2.40125,0.000305824928547771
-2.4,0.000234054771709271
-2.39875,0.000145338016893104
-2.3975,5.00293779812394e-05
-2.39625,-4.04048478110137e-05
-2.395,-0.000115838166942568
-2.39375,-0.000169655290673495
-2.3925,-0.000200093671864753
-2.39125,-0.000210465669852382
-2.39,-0.000208306498344036
-2.38875,-0.000203685683256222
-2.3875,-0.000206991805368893
-2.38625,-0.000226600079731283
-2.385,-0.0002669485547503
-2.38375,-0.00032750772168557
-2.3825,-0.00040287489766703
-2.38125,-0.000483927734904856
-2.38,-0.00055978472265894
-2.37875,-0.000620197381090465
-2.3775,-0.00065785342307373
-2.37625,-0.000670009486783999
-2.375,-0.000659057464612149
-2.37375,-0.000631971139071507
-2.3725,-0.000598830827730377
-2.37125,-0.000570716369869454
-2.37,-0.000557335581558776
-2.36875,-0.000564882080829296
-2.3675,-0.000594649095850732
-2.36625,-0.000642735014047109
-2.365,-0.000700869309678883
-2.36375,-0.000758159220723248
-2.3625,-0.000803424390913699
-2.36125,-0.000827641804508663
-2.36,-0.000825909210529865
-2.35875,-0.000798436049036803
-2.3575,-0.000750391221207531
-2.35625,-0.000690740268858998
-2.355,-0.00063033964809348
-2.35375,-0.000579621844912805
-2.3525,-0.000546324693543305
-2.35125,-0.000533804485346962
-2.35,-0.000540354159144844
-2.34875,-0.000559654233437553
-2.3475,-0.000582216674134483
-2.34625,-0.000597529473939267
-2.345,-0.000596479519022838
-2.34375,-0.000573492794792627
-2.3425,-0.000527843947379518
-2.34125,-0.000463848204985963
-2.34,-0.000389982763432298
-2.33875,-0.000317175650419764
-2.3375,-0.000256570961949836
-2.33625,-0.000217179419831081
-2.335,-0.000203940358538105
-2.33375,-0.000216680958211743
-2.3325,-0.000250205663952046
-2.33125,-0.000295451801787926
-2.33,-0.000341460125685942
-2.32875,-0.000377784757239171
-2.3275,-0.000396820293109999
-2.32625,-0.000395461439729585
-2.325,-0.000375694929147626
-2.32375,-0.000344067431909288
-2.3225,-0.000310226958891129
-2.32125,-0.000284830175658711
-2.32,-0.000277185708164907
-2.31875,-0.000293129077971435
-2.3175,-0.000333654164792048
-2.31625,-0.000394631622406885
-2.315,-0.000467636798377736
-2.31375,-0.000541684105903207
-2.3125,-0.000605535815377652
-2.31125,-0.000650112596273298
-2.31,-0.000670422143919165
-2.30875,-0.000666522671237268
-2.3075,-0.000643354180714971
-2.30625,-0.000609569380464136
-2.305,-0.000575630214469221
-2.30375,-0.000551503572199173
-2.3025,-0.000544410166141375
-2.30125,-0.000557164810375578
-2.3,-0.00058752525048518
-2.29875,-0.000628673138235621
-2.2975,-0.000670685413628259
-2.29625,-0.000702702076881592
-2.295,-0.000715364271664239
-2.29375,-0.000702958041581578
-2.2925,-0.000664715231448123
-2.29125,-0.000604987850121116
-2.29,-0.000532348176526958
-2.28875,-0.00045785719587669
-2.2875,-0.000392813192262966
-2.28625,-0.000346391457522175
-2.285,-0.000323702634150709
-2.28375,-0.00032475456744607
-2.2825,-0.000344546600018558
-2.28125,-0.000374227956832331
-2.28,-0.000403066231325938
-2.27875,-0.000420847838802166
-2.2775,-0.000420185827896636
-2.27625,-0.000398152699369429
-2.275,-0.000356846306952287
-2.27375,-0.000302840938580773
-2.2725,-0.000245724340253313
-2.27125,-0.000196012778794104
-2.27,-0.000162813722073521
-2.26875,-0.000151731260061265
-2.2675,-0.00016353704057269
-2.26625,-0.000193933569238876
-2.265,-0.000234428745722555
-2.26375,-0.000274114562443481
-2.2625,-0.000302011495121752
-2.26125,-0.000309496821883935
-2.26,-0.000292226633758949
-2.25875,-0.000251070084372974
-2.2575,-0.000191896997032692
-2.25625,-0.000124358571810295
-2.255,-5.99317827599107e-05
-2.25375,-9.56375908634807e-06
-2.2525,1.86274166394714e-05
-2.25125,2.10547662810673e-05
-2.25,-6.51661110881498e-07
-2.24875,-4.00989199366685e-05
-2.2475,-8.75826739939323e-05
-2.24625,-0.000132241376030054
-2.245,-0.000164487974420946
-2.24375,-0.00017815698116453
-2.2425,-0.000171820473601013
-2.24125,-0.000148988683772793
-2.24,-0.000117243944119973
-2.23875,-8.6546592763573e-05
-2.2375,-6.70225069647631e-05
-2.23625,-6.66431174461755e-05
-2.235,-8.93254370704576e-05
-2.23375,-0.000133935507612818
-2.2325,-0.000194421858431023
-2.23125,-0.000261008754027488
-2.23,-0.000322194219312183
-2.22875,-0.000367174441217415
-2.2275,-0.00038817017150569
-2.22625,-0.000382072389316176
-2.225,-0.000351013318383486
-2.22375,-0.000301812517038855
-2.2225,-0.000244498010727913
-2.22125,-0.000190195757157687
-2.22,-0.000148759330387721
-2.21875,-0.000126636941932164
-2.2175,-0.000125498989118734
-2.21625,-0.000141952466293787
-2.215,-0.000168362067978632
-2.21375,-0.000194574944134501
-2.2125,-0.000210217362539199
-2.21125,-0.000207089033742087
-2.21,-0.000181069839522045
-2.20875,-0.000133057092159354
-2.2075,-6.87696651030453e-05
-2.20625,2.44665086434822e-06
-2.205,6.95455856392514e-05
-2.20375,0.00012210384275316
-2.2025,0.000152585513468691
-2.20125,0.000158007886464362
-2.2,0.000140592727970176
-2.19875,0.000107282739153846
-2.1975,6.82676729957033e-05
-2.19625,3.48137689538381e-05
-2.195,1.68184857478985e-05
-2.19375,2.0649646100236e-05
-2.1925,4.78148782283326e-05
-2.19125,9.4747671122835e-05
-2.19,0.000153663692045263
-2.18875,0.000214250114333714
-2.1875,0.000265878810416779
-2.18625,0.000299933444366096
-2.185,0.000311724494221378
-2.18375,0.000301509838735037
-2.1825,0.000274393543999863
-2.18125,0.000239170402004733
-2.18,0.000206367842663068
-2.17875,0.000185861170649662
-2.1775,0.000184585375522822
-2.17625,0.000204924846190457
-2.175,0.000244171992482481
-2.17375,0.000295101923201246
-2.1725,0.000347461828333242
-2.17125,0.00039008237304586
-2.17,0.000413240355761328
-2.16875,0.000410775993808092
-2.1675,0.000381442027620921
-2.16625,0.000329159705443675
-2.165,0.000262163839254789
-2.16375,0.000191241743998381
-2.1625,0.000127400054129166
-2.16125,7.94374317338654e-05
-2.16,5.20123712233357e-05
-2.15875,4.46893174757442e-05
-2.1575,5.21251099583655e-05
-2.15625,6.52591577561049e-05
-2.155,7.32388908130837e-05
-2.15375,6.57441300758597e-05
-2.1525,3.52528841696931e-05
-2.15125,-2.12901389343759e-05
-2.15,-0.00010181500259666
-2.14875,-0.000199595871227826
-2.1475,-0.000304704183098797
-2.14625,-0.000406153527591008
-2.145,-0.000494314672531244
-2.14375,-0.000563042476786537
-2.1425,-0.000610972229402752
-2.14125,-0.000641703432788664
-2.14,-0.000662919681069857
-2.13875,-0.000684682470475394
-2.1375,-0.000717209744610871
-2.13625,-0.000768552585827058
-2.135,-0.000842697747988205
-2.13375,-0.00093857513035937
-2.1325,-0.00105019096424519
-2.13125,-0.00116781289292166
-2.13,-0.00127995120096163
-2.12875,-0.00137575952525587
-2.1275,-0.00144733519158877
-2.12625,-0.00149134294329105
-2.125,-0.00150957362683499
-2.12375,-0.00150838927471277
-2.1225,-0.00149725332262185
-2.12125,-0.00148663824355747
-2.12,-0.0014856832089952
-2.11875,-0.00150009951052661
-2.1175,-0.0015308446421242
-2.11625,-0.00157388601348728
-2.115,-0.00162106814132043
-2.11375,-0.00166187470427297
-2.1125,-0.00168574662951303
-2.11125,-0.00168447391670266
-2.11,-0.00165407393038261
-2.10875,-0.00159568373018108
-2.1075,-0.00151531801911632
-2.10625,-0.00142263790988314
-2.105,-0.00132900163511078
-2.10375,-0.00124513373067267
-2.1025,-0.00117886969709666
-2.10125,-0.0011335133932892
-2.1,-0.00110721672213349
-2.09875,-0.00109349443259133
-2.0975,-0.00108272377690129
-2.09625,-0.0010643298474212
-2.095,-0.00102922649807838
-2.09375,-0.000971947014774667
-2.0925,-0.000891922091178466
-2.09125,-0.000793632090606302
-2.09,-0.000685692521673693
-2.08875,-0.000579115636296523
-2.0875,-0.000485059947666793
-2.08625,-0.000412481753824369
-2.085,-0.00036621744701657
-2.08375,-0.00034597546600834
-2.0825,-0.000346456787975451
-2.08125,-0.000358528875560424
-2.08,-0.000371197886464807
-2.07875,-0.000374003103887909
-2.0775,-0.000359313167296927
-2.07625,-0.000323947476535265
-2.075,-0.000269735311798865
-2.07375,-0.000202965347897167
-2.0725,-0.000132924207997462
-2.07125,-6.98155554311177e-05
-2.07,-2.24328473439691e-05
-2.06875,3.91510594961773e-06
-2.0675,8.70520016309377e-06
-2.06625,-3.59031531218992e-06
-2.065,-2.43954787014303e-05
-2.06375,-4.28119974233188e-05
-2.0625,-4.79509859515555e-05
-2.06125,-3.13340325633421e-05
-2.06,1.122290339891e-05
-2.05875,7.87159600848494e-05
-2.0575,0.000165199022165792
-2.05625,0.000261021546023366
-2.055,0.000354784468638744
-2.05375,0.00043567561416823
-2.0525,0.000495727560861729
-2.05125,0.000531462944786346
-2.05,0.000544520779372235
-2.04875,0.00054115270128688
-2.0475,0.000530739175738718
-2.04625,0.000523623915997741
-2.045,0.00052869563284145
-2.04375,0.00055128111178882
-2.0425,0.000591889362174501
-2.04125,0.00064607820458859
-2.04,0.000705384398161469
-2.03875,0.000759073720492468
-2.0375,0.000796395666846805
-2.03625,0.000808923168525185
-2.035,0.000792444485525525
-2.03375,0.000747929391038679
-2.0325,0.00068135733043651
-2.03125,0.000602491567111092
-2.03,0.000522861892083053
-2.02875,0.000453336515352471
-2.0275,0.000401805973943162
-2.02625,0.000371555864361772
-2.025,0.000360713332131685
-2.02375,0.000362810687642815
-2.0225,0.000368264593536623
-2.02125,0.00036647857257633
-2.02,0.000348196158732748
-2.01875,0.000307605914719766
-2.0175,0.000243677862963204
-2.01625,0.000160412853044844
-2.015,6.59922922221071e-05
-2.01375,-2.89655628872656e-05
-2.0125,-0.000113708514502846
-2.01125,-0.000179733582655843
-2.01,-0.000222663330209235
-2.00875,-0.00024314081966585
-2.0075,-0.000246592615687557
-2.00625,-0.00024200407235199
-2.005,-0.000239978586830653
-2.00375,-0.000250419889758192
-2.0025,-0.000280297619712668
-2.00125,-0.000332033386570196
-2,-0.000402912016737923
-1.99875,-0.000485624930793187
-1.9975,-0.000569791921646584
-1.99625,-0.000644159963186624
-1.995,-0.000699046828883851
-1.99375,-0.000728464483759585
-1.9925,-0.000731385669582127
-1.99125,-0.00071188760098121
-1.99,-0.000678234606114901
-1.98875,-0.000641142045771376
-1.9875,-0.000611532591626044
-1.98625,-0.000598198801553771
-1.985,-0.000605899596536218
-1.98375,-0.000634366572578271
-1.9825,-0.000678436042390018
-1.98125,-0.000729230632229045
-1.98,-0.000776134948392487
-1.97875,-0.000809186752151474
-1.9775,-0.000821359197077877
-1.97625,-0.000810157072478195
-1.975,-0.000778144919944396
-1.97375,-0.000732366408761307
-1.9725,-0.000682856937605508
-1.97125,-0.000640541068378781
-1.97,-0.00061488736771475
-1.96875,-0.000611818925940074
-1.9675,-0.00063239742704105
-1.96625,-0.000672595474013183
-1.965,-0.000724167088594527
-1.96375,-0.00077640889069958
-1.9625,-0.000818476824031623
-1.96125,-0.000841779861407666
-1.96,-0.000841866378649433
-1.95875,-0.000819331755567525
-1.9575,-0.000779596604485071
-1.95625,-0.00073169634643624
-1.955,-0.00068634941976709
-1.95375,-0.000653640385090067
-1.9525,-0.000640777436988703
-1.95125,-0.000650461985294644
-1.95,-0.000680276017671866
-1.94875,-0.000723195936149338
-1.9475,-0.000769082242272824
-1.94625,-0.000806848414918259
-1.945,-0.000826881732070554
-1.94375,-0.000823154003131565
-1.9425,-0.000794485872055519
-1.94125,-0.000744697361766822
-1.94,-0.000681705191352627
-1.93875,-0.000615807999893402
-1.9375,-0.000557469615275168
-1.93625,-0.000515014014270739
-1.935,-0.000492758577779224
-1.93375,-0.000490058186030249
-1.9325,-0.00050147130046595
-1.93125,-0.000517967734759825
-1.93,-0.000528919444815747
-1.92875,-0.000524493526246953
-1.9275,-0.000497923088593231
-1.92625,-0.000447082704867645
-1.925,-0.000374991947795117
-1.92375,-0.000289210193261808
-1.9225,-0.000200325334832319
-1.92125,-0.000119827809626712
-1.92,-5.77433423495372e-05
-1.91875,-2.05235978445013e-05
-1.9175,-9.71204134025042e-06
-1.91625,-2.16981274490319e-05
-1.915,-4.85688248059945e-05
-1.91375,-7.98510220117704e-05
-1.9125,-0.00010481268028715
-1.91125,-0.000114847058273129
-1.91,-0.000105356574822061
-1.90875,-7.66644486933944e-05
-1.9075,-3.3802993616664e-05
-1.90625,1.46814969391462e-05
-1.905,5.86411238313056e-05
-1.90375,8.86204413320552e-05
-1.9025,9.80721487361299e-05
-1.90125,8.49556227946594e-05
-1.9,5.23124655396187e-05
-1.89875,7.71120637943528e-06
-1.8975,-3.82869076333099e-05
-1.89625,-7.43396363233553e-05
-1.895,-9.07750073465961e-05
-1.89375,-8.17090099329559e-05
-1.8925,-4.62917623287751e-05
-1.89125,1.11763903974723e-05
-1.89,8.21878825787776e-05
-1.88875,0.000155783029095351
-1.8875,0.000220804087557535
-1.88625,0.000268231723687623
-1.885,0.000293075951854162
-1.88375,0.000295351488732449
-1.8825,0.000279930661962099
-1.88125,0.000255356035151653
-1.88,0.000231869495283458
-1.87875,0.000219035680751181
-1.8775,0.000223483316487923
-1.87625,0.000247338360269658
-1.875,0.000287724388449894
-1.87375,0.00033736463369539
-1.8725,0.000386082303549886
-1.87125,0.000422909132120255
-1.87,0.000438430124283592
-1.86875,0.000426866050824842
-1.8675,0.000387377251104802
-1.86625,0.000324276753195893
-1.865,0.000246144881813873
-1.86375,0.000164053599585336
-1.8625,8.92366447731072e-05
-1.86125,3.06865785967847e-05
-1.86,-6.7351665086423e-06
-1.85875,-2.32059620219804e-05
-1.8575,-2.37212953601818e-05
-1.85625,-1.68896298898229e-05
-1.855,-1.30110841994062e-05
-1.85375,-2.17758462873239e-05
-1.8525,-5.00400639143705e-05
-1.85125,-0.000100212722147779
-1.85,-0.000169653794460152
-1.84875,-0.000251190035755217
-1.8475,-0.000334600953502583
-1.84625,-0.000408782405852933
-1.845,-0.0004641596513537
-1.84375,-0.000494784087079895
-1.8425,-0.000499578367493592
-1.84125,-0.000482468846489343
-1.84,-0.000451470220088315
-1.83875,-0.000416962739594114
-1.8375,-0.000389470242635968
-1.83625,-0.00037735257843926
-1.835,-0.000384938394407705
-1.83375,-0.000411567475934395
-1.8325,-0.000451750823424327
-1.83125,-0.000496369737508518
-1.83,-0.00053466022690085
-1.82875,-0.000556605549266366
-1.8275,-0.000555212980506613
-1.82625,-0.000528101287684564
-1.825,-0.00047802289510916
-1.82375,-0.000412282631843451
-1.8225,-0.000341251204738383
-1.82125,-0.000276260112305371
-1.82,-0.000227249638127198
-1.81875,-0.000200668507964359
-1.8175,-0.000198139798157149
-1.81625,-0.000216202672405495
-1.815,-0.000247138797949077
-1.81375,-0.000280681255365536
-1.8125,-0.000306279715195895
-1.81125,-0.000315452084165146
-1.81,-0.000303645434623293
-1.80875,-0.000271139463715124
-1.8075,-0.000222842383355019
-1.80625,-0.000167115954299831
-1.805,-0.000113891137665881
-1.80375,-7.24060305945339e-05
-1.8025,-4.90218850988091e-05
-1.80125,-4.56489303579452e-05
-1.8,-5.91795242254341e-05
-1.79875,-8.20323796677252e-05
-1.7975,-0.000103659104915336
-1.79625,-0.000112720288359611
-1.795,-9.95032511320494e-05
-1.79375,-5.80174694129255e-05
-1.7925,1.27630588172335e-05
-1.79125,0.000108766233132802
-1.79,0.000221731045015652
-1.78875,0.000340923510434024
-1.7875,0.000455355873757467
-1.78625,0.000556096191768358
-1.785,0.000638140826149486
-1.78375,0.000701380933003286
-1.7825,0.000750456662994947
-1.78125,0.000793578598112626
-1.78,0.000840568999097872
-1.77875,0.000900498692840572
-1.7775,0.000979442279800642
-1.77625,0.00107892137597228
-1.775,0.00119540501204567
-1.77375,0.00132090073756952
-1.7725,0.00144444105006272
-1.77125,0.00155418612506629
-1.77,0.00163977680879525
-1.76875,0.00169443960421506
-1.7675,0.00171632687200502
-1.76625,0.0017087805144239
-1.765,0.00167950705243981
-1.76375,0.00163886139878076
-1.7625,0.00159756236886757
-1.76125,0.00156431150503685
-1.76,0.00154389715189022
-1.75875,0.0015362540426653
-1.7575,0.00153663115801393
-1.75625,0.0015367370268977
-1.755,0.00152661018229687
-1.75375,0.00149688938476312
-1.7525,0.00144102657038822
-1.75125,0.00135690521936731
-1.75,0.00124746171203956
-1.74875,0.00112020081721933
-1.7475,0.000985745017135585
-1.74625,0.000855698387270656
-1.745,0.000740243357870769
-1.74375,0.000646030730978809
-1.7425,0.000574895825273659
-1.74125,0.000523664483982169
-1.74,0.000484996966048498
-1.73875,0.000449050647607929
-1.7375,0.000405671525851726
-1.73625,0.000346706345800109
-1.735,0.000267904732123055
-1.73375,0.000169936360314818
-1.7325,5.83090455894006e-05
-1.73125,-5.77462307473026e-05
-1.73,-0.000167190027748928
-1.72875,-0.000259529900779875
-1.7275,-0.0003271004747874
-1.72625,-0.00036669497012922
-1.725,-0.000380169968542232
-1.72375,-0.000373975676248759
-1.7225,-0.000357785827933554
-1.72125,-0.00034248281167598
-1.72,-0.00033784976706341
-1.71875,-0.00035046652142463
-1.7175,-0.000382330359648417
-1.71625,-0.000430519366511069
-1.715,-0.000487923002746645
-1.71375,-0.000544863024074294
-1.7125,-0.000591300402697441
-1.71125,-0.000619164437476695
-1.71,-0.000624223246327743
-1.70875,-0.000607028970098982
-1.7075,-0.000572787478889208
-1.70625,-0.000530273866084795
-1.705,-0.000490023745789708
-1.70375,-0.000462102376427828
-1.7025,-0.000453894477929998
-1.70125,-0.000468447784328968
-1.7,-0.000503775640447474
-1.69875,-0.000553239514140277
-1.6975,-0.000606895517990936
-1.69625,-0.000653552569022564
-1.695,-0.000683142751675788
-1.69375,-0.000688847860336328
-1.6925,-0.000668445991413599
-1.69125,-0.00062460900115261
-1.69,-0.000564191663878625
-1.68875,-0.000496709819930329
-1.6875,-0.000432269631850783
-1.68625,-0.000379334550328864
-1.685,-0.000342850991450507
-1.68375,-0.000323205577004719
-1.6825,-0.000316232338037617
-1.68125,-0.000314219162026574
-1.68,-0.00030770378338186
-1.67875,-0.000287720764996082
-1.6775,-0.000247994859524324
-1.67625,-0.000186514997110346
-1.675,-0.000106116957944495
-1.67375,-1.40273592534498e-05
-1.6725,7.94668666881898e-05
-1.67125,0.000162984950330222
-1.67,0.000226318121634477
-1.66875,0.000262506994545583
-1.6675,0.000269216508718049
-1.66625,0.00024909691342689
-1.665,0.000209104880061337
-1.66375,0.000158948600322616
-1.6625,0.000108941807157425
-1.66125,6.77135170419363e-05
-1.66,4.03427799664181e-05
-1.65875,2.73779725688163e-05
-1.6575,2.48900127000025e-05
-1.65625,2.54481558854075e-05
-1.655,1.98079016365669e-05
-1.65375,-9.70852026138851e-07
-1.6525,-4.34043239661089e-05
-1.65125,-0.000109987250766052
-1.65,-0.000198513576934728
-1.64875,-0.000302432052946467
-1.6475,-0.00041212703881311
-1.64625,-0.000516887365312907
-1.645,-0.000607180576519369
-1.64375,-0.000676691880702979
-1.6425,-0.000723607938420457
-1.64125,-0.000750890133387316
-1.64,-0.000765580569223542
-1.63875,-0.000777326765264142
-1.6375,-0.000796369858512617
-1.63625,-0.000831367095205446
-1.635,-0.000887555450885918
-1.63375,-0.000965715770477041
-1.6325,-0.00106214801132515
-1.63125,-0.00116961099093222
-1.63,-0.00127903196940297
-1.62875,-0.00138166501881946
-1.6275,-0.00147120789912981
-1.62625,-0.00154532571634667
-1.625,-0.00160622474387705
-1.62375,-0.00166023681209939
-1.6225,-0.00171656807509373
-1.62125,-0.00178542473597003
-1.62,-0.00187582499339398
-1.61875,-0.00199356570536099
-1.6175,-0.00213984517308209
-1.61625,-0.00231084768256885
-1.615,-0.00249832441611902
-1.61375,-0.00269103554847262
-1.6125,-0.00287680766098841
-1.61125,-0.00304478985192856
-1.61,-0.00318735072036729
-1.60875,-0.00330115490538703
-1.6075,-0.00338726166733029
-1.60625,-0.00345034097211271
-1.605,-0.00349719205625988
-1.60375,-0.00353481811066673
-1.6025,-0.00356846249416072
-1.60125,-0.00360010919458264
-1.6,-0.0036278253897542
-1.59875,-0.00364605494253153
-1.5975,-0.0036467645443055
-1.59625,-0.00362123160028709
-1.595,-0.00356212015534468
-1.59375,-0.00346533137946581
-1.5925,-0.0033311368861358
-1.59125,-0.00316436364060091
-1.59,-0.00297368138857633
-1.58875,-0.00277016557266516
-1.5875,-0.00256535595060547
-1.58625,-0.00236915764825077
-1.585,-0.00218807126544971
-1.58375,-0.00202419171138634
-1.5825,-0.00187516995008747
-1.58125,-0.00173508841978793
-1.58,-0.00159607145986643
-1.57875,-0.00145033655872651
-1.5775,-0.00129222265157668
-1.57625,-0.00111966474235094
-1.575,-0.000934771661341818
-1.57375,-0.000743470448769294
-1.5725,-0.000554363677913835
-1.57125,-0.000376998522993704
-1.57,-0.000219841868730231
-1.56875,-8.84144320873595e-05
-1.5675,1.59335818080649e-05
-1.56625,9.63207797847001e-05
-1.565,0.000159689708965118
-1.56375,0.00021536441166939
-1.5625,0.000273060081881067
-1.56125,0.00034075647879958
-1.56,0.000422973894632824
-1.55875,0.000519882104473744
-1.5575,0.000627371029579502
-1.55625,0.00073797311838067
-1.555,0.000842450541209527
-1.55375,0.000931795915995002
-1.5525,0.000999244564004172
-1.55125,0.00104180144018063
-1.55,0.00106091205529582
-1.54875,0.00106217262996524
-1.5475,0.00105417673903365
-1.54625,0.00104670568574008
-1.545,0.00104861366319392
-1.54375,0.00106592180194424
-1.5425,0.00110061648651953
-1.54125,0.00115038735264547
-1.54,0.00120925723118955
-1.53875,0.00126893468335148
-1.5375,0.00132067353472099
-1.53625,0.0013572967543148
-1.535,0.00137490092143886
-1.53375,0.00137380328845864
-1.5325,0.00135853732999434
-1.53125,0.00133694506897055
-1.53,0.00131854419315844
-1.52875,0.00131246398153731
-1.5275,0.00132541336224763
-1.52625,0.00136021040476793
-1.525,0.00141521445636945
-1.52375,0.0014846965872876
-1.5225,0.00156000296731388
-1.52125,0.00163131318271351
-1.52,0.00168969837857669
-1.51875,0.00172902515943663
-1.5175,0.00174722270072875
-1.51625,0.00174662832642141
-1.515,0.00173339229950361
-1.51375,0.00171608387494738
-1.5125,0.00170374497916402
-1.51125,0.00170380064417974
-1.51,0.00172036252237807
-1.50875,0.00175335340488101
-1.5075,0.00179858028229276
-1.50625,0.00184864733981368
-1.505,0.00189452523024067
-1.50375,0.00192752789984017
-1.5025,0.00194129508307677
-1.50125,0.00193328240458549
-1.5,0.00190538866809743
-1.49875,0.00186361882229108
-1.4975,0.00181688530944931
-1.49625,0.00177516133376386
-1.495,0.00174734306551668
-1.49375,0.00173933787641888
-1.4925,0.00175287171657241
-1.49125,0.00178524565411392
-1.49,0.00182998955364641
-1.48875,0.00187824106168106
-1.4875,0.00192063164757336
-1.48625,0.00194933348018122
-1.485,0.00195978065401036
-1.48375,0.0019516273400844
-1.4825,0.00192875228720758
-1.48125,0.00189836103301099
-1.48,0.00186936483854583
-1.47875,0.0018503311187718
-1.4775,0.00184746942598806
-1.47625,0.00186318028976918
-1.475,0.00189550298352986
-1.47375,0.00193849317749322
-1.4725,0.00198338393089434
-1.47125,0.00202033423318945
-1.47,0.00204047355684154
-1.46875,0.00203779163444894
-1.4675,0.00201039333730048
-1.46625,0.001960835480505
-1.465,0.00189552685897729
-1.46375,0.00182333271367881
-1.4625,0.00175362717994303
-1.46125,0.00169419839439219
-1.46,0.00164953920706323
-1.45875,0.00161995206650178
-1.4575,0.00160159941455915
-1.45625,0.00158739475447363
-1.455,0.00156855337154373
-1.45375,0.00153655620325452
-1.4525,0.00148512726510016
-1.45125,0.00141172885308053
-1.45,0.00131820542438665
-1.44875,0.001210473575205
-1.4475,0.00109735703938422
-1.44625,0.000988774786283912
-1.445,0.000893633451923389
-1.44375,0.00081793660508148
-1.4425,0.000763602066210848
-1.44125,0.000728218188679923
-1.44,0.000705689077229411
-1.43875,0.000687598351588639
-1.4375,0.000665073690509222
-1.43625,0.00063080643139037
-1.435,0.000580741682325775
-1.43375,0.000515004920232995
-1.4325,0.000437877530492273
-1.43125,0.000356874201129569
-1.43,0.00028110278271724
-1.42875,0.000219204785301771
-1.4275,0.000177343942838761
-1.42625,0.000157769677072208
-1.425,0.000158286896919238
-1.42375,0.000172658118506778
-1.4225,0.000191789226783328
-1.42125,0.000205502920025546
-1.42,0.000204606905295534
-1.41875,0.000182802715637727
-1.4175,0.00013795259861504
-1.41625,7.24219337682716e-05
-1.415,-7.51926201411343e-06
-1.41375,-9.30928982043496e-05
-1.4125,-0.000174962224891822
-1.41125,-0.000245326140738557
-1.41,-0.00029962230730862
-1.40875,-0.000337410686839532
-1.4075,-0.000362309358280283
-1.40625,-0.000381091335751038
-1.405,-0.00040212799179147
-1.40375,-0.000433431657022762
-1.4025,-0.000480702231085218
-1.40125,-0.000545873850449734
-1.4,-0.000626524960966869
-1.39875,-0.000716246103984523
-1.3975,-0.000805859432628385
-1.39625,-0.00088527570616743
-1.395,-0.000945630163126155
-1.39375,-0.000981178519293424
-1.3925,-0.000990462226024307
-1.39125,-0.000976519038738231
-1.39,-0.000946196119371972
-1.38875,-0.00090874008509703
-1.3875,-0.000873885167242961
-1.38625,-0.000849789586977226
-1.385,-0.000841307757886018
-1.38375,-0.000849032673228288
-1.3825,-0.000869295542027075
-1.38125,-0.000895070471357922
-1.38,-0.000917605017702857
-1.37875,-0.000928479010192956
-1.3775,-0.000921622821937298
-1.37625,-0.000894764344682651
-1.375,-0.000849967996365452
-1.37375,-0.000793236885156728
-1.3725,-0.000733329047873542
-1.37125,-0.000679990053113854
-1.37,-0.000641902057112231
-1.36875,-0.000624808072322236
-1.3675,-0.00063029378893022
-1.36625,-0.000655504592416132
-1.365,-0.000693806612704478
-1.36375,-0.000736239757386099
-1.3625,-0.000773506779815231
-1.36125,-0.000798080632132705
-1.36,-0.000805890812001053
-1.35875,-0.000797166572993433
-1.3575,-0.000776320027974019
-1.35625,-0.000750986805800686
-1.355,-0.000730413863614296
-1.35375,-0.000723448251514091
-1.3525,-0.000736533233133152
-1.35125,-0.000772210688152419
-1.35,-0.000828495835933088
-1.34875,-0.000899219907593772
-1.3475,-0.000975235693248465
-1.34625,-0.00104627301677127
-1.345,-0.00110308628541613
-1.34375,-0.00113937451454411
-1.3425,-0.00115298004397071
-1.34125,-0.00114613715770684
-1.34,-0.00112482305621961
-1.33875,-0.00109738318155077
-1.3375,-0.00107265191849555
-1.33625,-0.0010579193830182
-1.335,-0.00105723197056814
-1.33375,-0.00107045957353984
-1.3325,-0.00109331395774827
-1.33125,-0.00111826429441844
-1.33,-0.00113617066757666
-1.32875,-0.00113833926746679
-1.3275,-0.00111853305712903
-1.32625,-0.00107441139407255
-1.325,-0.00100806578395981
-1.32375,-0.000925622612529027
-1.3225,-0.000836058733373432
-1.32125,-0.00074942661978677
-1.32,-0.000674786948532462
-1.31875,-0.000618307803943696
-1.3175,-0.000582013694240513
-1.31625,-0.000563463940683279
-1.315,-0.000556374096101797
-1.31375,-0.000552035359313258
-1.3125,-0.000541282541621518
-1.31125,-0.0005165966073992
-1.31,-0.000473802265505001
-1.30875,-0.000412934327047186
-1.3075,-0.000338150091616631
-1.30625,-0.000256801067055191
-1.305,-0.000177852032844389
-1.30375,-0.000109901853859244
-1.3025,-5.92130263661171e-05
-1.30125,-2.82468768864372e-05
-1.3,-1.50663383109317e-05
-1.29875,-1.3698331940597e-05
-1.2975,-1.5348315452824e-05
-1.29625,-1.02525967826846e-05
-1.295,1.01891773755567e-05
-1.29375,5.15188184688853e-05
-1.2925,0.000115052551136004
-1.29125,0.000197667860410997
-1.29,0.000292488732321715
-1.28875,0.000390294469002919
-1.2875,0.000481428136031643
-1.28625,0.000557851057149683
-1.285,0.000614854435167679
-1.28375,0.000651995633746066
-1.2825,0.000673074445979725
-1.28125,0.000685202371644118
-1.28,0.00069714627703789
-1.27875,0.000717251672006027
-1.2775,0.000751423923471855
-1.27625,0.000801699310813467
-1.275,0.000865733029009388
-1.27375,0.000937222757865657
-1.2725,0.00100711372858029
-1.27125,0.00106538384394217
-1.27,0.00110310842785307
-1.26875,0.00111434519654359
-1.2675,0.00109735925400799
-1.26625,0.0010549144424445
-1.265,0.000993624271509216
-1.26375,0.000922513023862632
-1.2625,0.000851039697831288
-1.26125,0.000786999719645449
-1.26,0.000734842008050049
-1.25875,0.0006948226856584
-1.2575,0.000663113165572026
-1.25625,0.000632747548969428
-1.255,0.000595221385716778
-1.25375,0.000542485616832549
-1.2525,0.00046892503237206
-1.25125,0.000372821762660287
-1.25,0.000256942120896379
-1.24875,0.000128156391143668
-1.2475,-3.79997496938269e-06
-1.24625,-0.000128207323785524
-1.245,-0.00023552102298385
-1.24375,-0.00031928373837659
-1.2425,-0.000377298505595154
-1.24125,-0.000411842776882072
-1.24,-0.000428984576946402
-1.23875,-0.000437176708989031
-1.2375,-0.000445353212759222
-1.23625,-0.00046088494618442
-1.235,-0.000487887523169549
-1.23375,-0.000526313664455185
-1.2325,-0.000572007267709637
-1.23125,-0.000617656218751244
-1.23,-0.000654455751861798
-1.22875,-0.000674175748834258
-1.2275,-0.000671157004307268
-1.22625,-0.000643709913366795
-1.225,-0.000594592747042083
-1.22375,-0.000530553286246051
-1.2225,-0.000461089827377133
-1.22125,-0.000396635703770643
-1.22,-0.000346471050936536
-1.21875,-0.000316824021516015
-1.2175,-0.000309642911169973
-1.21625,-0.000322312917572082
-1.215,-0.000348324110797645
-1.21375,-0.000378738298067511
-1.2125,-0.000404195936834468
-1.21125,-0.00041703855004616
-1.21,-0.000413002470527596
-1.20875,-0.000392063673819601
-1.2075,-0.00035832228182104
-1.20625,-0.000319048116566336
-1.205,-0.000283079265370159
-1.20375,-0.000258832270806303
-1.2025,-0.000252335945668454
-1.20125,-0.000265787420366736
-1.2,-0.000296987992276365
-1.19875,-0.000339742715193393
-1.1975,-0.000385109157443232
-1.19625,-0.000423275549009306
-1.195,-0.000445703910248902
-1.19375,-0.000447014279120675
-1.1925,-0.000426120459874792
-1.19125,-0.000386401052283001
-1.19,-0.000334970591227193
-1.18875,-0.000281230009591651
-1.1875,-0.000234923410745804
-1.18625,-0.000204060016061874
-1.185,-0.000193195020712687
-1.18375,-0.000202501150675113
-1.1825,-0.000227809198777562
-1.18125,-0.000261557253231217
-1.18,-0.000294462930021084
-1.17875,-0.000317611685943276
-1.1775,-0.000324482629211947
-1.17625,-0.000312381234991577
-1.175,-0.000282954581223269
-1.17375,-0.000241773014344919
-1.1725,-0.000197133364074986
-1.17125,-0.000158286306026281
-1.17,-0.000133391774870346
-1.16875,-0.000127665237052184
-1.1675,-0.000142193475717184
-1.16625,-0.000173687134421964
-1.165,-0.000215170501663499
-1.16375,-0.000257454232343551
-1.1625,-0.000291134193078547
-1.16125,-0.000308695302955082
-1.16,-0.000306179641609543
-1.15875,-0.000284001975559209
-1.1575,-0.000246803271505186
-1.15625,-0.000202463046542944
-1.155,-0.000160461388874365
-1.15375,-0.000129850411262843
-1.1525,-0.000117250412158011
-1.15125,-0.000125372213781554
-1.15,-0.000152425147395937
-1.14875,-0.000192497324041284
-1.1475,-0.000236796330006863
-1.14625,-0.000275529392659944
-1.145,-0.000300052756862099
-1.14375,-0.000304761037443285
-1.1425,-0.000288227455912885
-1.14125,-0.000253383766708272
-1.14,-0.000206808413764954
-1.13875,-0.000157301713815705
-1.1375,-0.000113972731803755
-1.13625,-8.41950289878054e-05
-1.135,-7.19241186240173e-05
-1.13375,-7.68075046854077e-05
-1.1325,-9.42641578325918e-05
-1.13125,-0.000116470407269841
-1.13,-0.000134061311819301
-1.12875,-0.000138233297661053
-1.1275,-0.000122764127041343
-1.12625,-8.54207274118477e-05
-1.125,-2.84371392245814e-05
-1.12375,4.19469144914616e-05
-1.1225,0.000116727953971981
-1.12125,0.00018595595072407
-1.12,0.000240819767654497
-1.11875,0.000275534730081496
-1.1175,0.00028855118323885
-1.11625,0.000282815168588854
-1.115,0.00026508013729942
-1.11375,0.0002444260124417
-1.1125,0.000230248296895254
-1.11125,0.000230145723014808
-1.11,0.000248250447455252
-1.10875,0.00028441379682598
-1.1075,0.000334349379231057
-1.10625,0.000390607058980365
-1.105,0.000444185505277104
-1.10375,0.000486524866044575
-1.1025,0.000511467106480744
-1.10125,0.00051668734335675
-1.1,0.000504243418308027
-1.09875,0.000480163714146065
-1.0975,0.000453189899544245
-1.09625,0.00043289808931283
-1.095,0.000427567887441258
-1.09375,0.000442323393419741
-1.0925,0.000478028134127294
-1.09125,0.000531140544841772
-1.09,0.000594460394506188
-1.08875,0.00065858676758027
-1.0875,0.000713860898557558
-1.08625,0.000752434378185365
-1.085,0.00076996939594044
-1.08375,0.000766541991907964
-1.0825,0.00074657374340593
-1.08125,0.000717855064291997
-1.08,0.000689849242396682
-1.07875,0.000671589796400797
-1.0775,0.000669654034328797
-1.07625,0.000686740933900008
-1.075,0.000721170318838438
-1.07375,0.000767314161235061
-1.0725,0.000816803851403015
-1.07125,0.000860310434113124
-1.07,0.000889592390487625
-1.06875,0.000899347671994591
-1.0675,0.000888393633552173
-1.06625,0.000859911029510435
-1.065,0.000820753322950706
-1.06375,0.000779975506034859
-1.0625,0.00074683889072958
-1.06125,0.000728712474717485
-1.06,0.000729410039231965
-1.05875,0.000748378002926456
-1.0575,0.000780843054657625
-1.05625,0.000818799482352672
-1.055,0.00085264515477447
-1.05375,0.000873204329665071
-1.0525,0.000873720799973826
-1.05125,0.00085132304837776
-1.05,0.000807608474640817
-1.04875,0.000748264968453483
-1.0475,0.000681842185874849
-1.04625,0.000617891316628151
-1.045,0.000564840439409044
-1.04375,0.000528130219633044
-1.0425,0.000509094434947027
-1.04125,0.000504794654119587
-1.04,0.000508741952014731
-1.03875,0.000512328712248062
-1.0375,0.000506744939335228
-1.03625,0.000485018705378443
-1.035,0.000443687042167932
-1.03375,0.000383671397521403
-1.0325,0.000310188624363567
-1.03125,0.000231764095012877
-1.03,0.000158533542235345
-1.02875,0.000100138076591351
-1.0275,6.36872672993988e-05
-1.02625,5.23178055948148e-05
-1.025,6.46723225598165e-05
-1.02375,9.53181479375035e-05
-1.0225,0.000135953881723769
-1.02125,0.00017719932905521
-1.02,0.000210659001814501
-1.01875,0.000230791139449408
-1.0175,0.000236102196770477
-1.01625,0.000229400475062176
-1.015,0.000217109106739866
-1.01375,0.000207793949285128
-1.0125,0.000210166996542129
-1.01125,0.000230991172851779
-1.01,0.000273428368745181
-1.00875,0.000336243567927998
-1.0075,0.000413969178702253
-1.00625,0.000497906052749621
-1.005,0.000577769453286274
-1.00375,0.000643717950561537
-1.0025,0.000688347855256281
-1.00125,0.000708154835554844
-1,0.000704111341313002
-0.99875,0.000681280205028774
-0.9975,0.000647579164395885
-0.99625,0.000611917680718985
-0.995,0.00058207473366768
-0.99375,0.000562842279694404
-0.9925,0.000554918087792327
-0.99125,0.000554756747830285
-0.99,0.000555311037167204
-0.98875,0.000547485186961247
-0.9875,0.000522072695041829
-0.98625,0.000471817377311052
-0.985,0.00039310394978662
-0.98375,0.000286851557190836
-0.9825,0.000158437993840896
-0.98125,1.67164202169134e-05
-0.98,-0.00012769079871419
-0.97875,-0.000264512817203792
-0.9775,-0.000385883780644518
-0.97625,-0.000487797346263125
-0.975,-0.000570639183299055
-0.97375,-0.000638782770188075
-0.9725,-0.000699404531227383
-0.97125,-0.000760722605300555
-0.97,-0.000829965754905784
-0.96875,-0.000911535858007389
-0.9675,-0.00100583905160028
-0.96625,-0.00110904814385372
-0.965,-0.00121379554850298
-0.96375,-0.00131064372436748
-0.9625,-0.00139007675604043
-0.96125,-0.00144459211031011
-0.96,-0.00147035450029637
-0.95875,-0.00146799896914527
-0.9575,-0.00144247488281792
-0.95625,-0.00140204956618308
-0.955,-0.00135666128755883
-0.95375,-0.00131588408417193
-0.9525,-0.00128692303318822
-0.95125,-0.0012731393215761
-0.95,-0.00127345711079429
-0.94875,-0.00128273293918894
-0.9475,-0.00129297539670644
-0.94625,-0.00129519634756009
-0.945,-0.00128152616711592
-0.94375,-0.0012470686646896
-0.9425,-0.0011910129820002
-0.94125,-0.00111679452214066
-0.94,-0.00103137214446642
-0.93875,-0.000943799348651187
-0.9375,-0.000863317500476098
-0.93625,-0.000797332788586515
-0.935,-0.000749767815972748
-0.93375,-0.000720208421761708
-0.9325,-0.000704010808265661
-0.93125,-0.000693300636510448
-0.93,-0.000678674858818622
-0.92875,-0.000651295943340065
-0.9275,-0.00060489875215138
-0.92625,-0.000537186243787549
-0.925,-0.000450301033887138
-0.92375,-0.000350363483031209
-0.9225,-0.000246232422288722
-0.92125,-0.000147693432877724
-0.92,-6.33849420365502e-05
-0.91875,1.07030066051265e-06
-0.9175,4.42513329902448e-05
-0.91625,6.91800709341672e-05
-0.915,8.26193806802388e-05
-0.91375,9.3584823278387e-05
-0.9125,0.000111334270624275
-0.91125,0.000143265795611809
-0.91,0.000193265770918198
-0.90875,0.000260914294725557
-0.9075,0.000341645464858166
-0.90625,0.000427735923217524
-0.905,0.000509929538480098
-0.90375,0.000579436102542152
-0.9025,0.000629887890171524
-0.90125,0.000658760871515316
-0.9,0.000667917389332454
-0.89875,0.000663197778043529
-0.8975,0.000653178684156751
-0.89625,0.000647318875615122
-0.895,0.000653858318185442
-0.89375,0.00067798896311318
-0.8925,0.000720771623353764
-0.89125,0.000779000487470329
-0.89,0.00084594628899151
-0.88875,0.000912801084765097
-0.8875,0.000970595951060577
-0.88625,0.00101222755954323
-0.885,0.0010341012228877
-0.88375,0.00103697034881961
-0.8825,0.00102580877217479
-0.88125,0.00100878694091856
-0.88,0.000995547156017997
-0.87875,0.000995098309137711
-0.8775,0.0010138186749782
-0.87625,0.00105408920997941
-0.875,0.00111385771791585
-0.87375,0.00118712893718508
-0.8725,0.00126521701527751
-0.87125,0.0013385545652777
-0.87,0.00139874923138783
-0.86875,0.00144042203534709
-0.8675,0.00146235446949079
-0.86625,0.00146768765860681
-0.865,0.00146318097989786
-0.86375,0.0014576908108614
-0.8625,0.00146013784472787
-0.86125,0.00147739803877412
-0.86,0.00151266078705334
-0.85875,0.00156465833038132
-0.8575,0.00162785979199956
-0.85625,0.00169350207148828
-0.855,0.0017512661715851
-0.85375,0.00179133567911122
-0.8525,0.00180641630777546
-0.85125,0.00179321622021743
-0.85,0.00175303806797867
-0.84875,0.00169140665385762
-0.8475,0.001616847020684
-0.84625,0.00153902973523134
-0.845,0.00146664485501098
-0.84375,0.00140552339672606
-0.8425,0.00135749018560324
-0.84125,0.0013201636515095
-0.84,0.00128764281326719
-0.83875,0.00125190725335924
-0.8375,0.00120470241649096
-0.83625,0.00113954676076312
-0.835,0.00105336783431399
-0.83375,0.000947347139448002
-0.8325,0.000826810706218905
-0.83125,0.000700234075962928
-0.83,0.000577548553502315
-0.82875,0.000468054213316284
-0.8275,0.000378414130838643
-0.82625,0.000311252779510202
-0.825,0.000264676809092564
-0.82375,0.000232734389928731
-0.8225,0.000206660538606718
-0.82125,0.000176702675323359
-0.82,0.000134212314699984
-0.81875,7.35316737209462e-05
-0.8175,-6.80172058416264e-06
-0.81625,-0.000103791781124337
-0.815,-0.000210658368068269
-0.81375,-0.000318296651884085
-0.8125,-0.000417266632170439
-0.81125,-0.000499893634797854
-0.81,-0.000561942362137577
-0.80875,-0.000603449673699371
-0.8075,-0.000628603750286524
-0.80625,-0.000644784222628578
-0.805,-0.000660951159501223
-0.80375,-0.000685647761189019
-0.8025,-0.000725039238859506
-0.80125,-0.000781486724230778
-0.8,-0.000853001703994084
-0.79875,-0.000933654070073158
-0.7975,-0.00101481803901632
-0.79625,-0.00108703781225861
-0.795,-0.00114214628295023
-0.79375,-0.00117511241945391
-0.7925,-0.00118513551714881
-0.79125,-0.00117578029379925
-0.79,-0.00115422140787546
-0.78875,-0.00112977597014614
-0.7875,-0.00111195476223583
-0.78625,-0.00110839920538434
-0.785,-0.00112319945007324
-0.78375,-0.00115601450059635
-0.7825,-0.00120215825069731
-0.78125,-0.00125358420201682
-0.78,-0.00130058145799025
-0.77875,-0.00133387044411469
-0.7775,-0.00134661541674411
-0.77625,-0.00133582903186689
-0.775,-0.00130285803859969
-0.77375,-0.00125294237480798
-0.7725,-0.00119400335796747
-0.77125,-0.00113486606059457
-0.77,-0.00108322919187462
-0.76875,-0.00104385247813294
-0.7675,-0.00101743454562897
-0.76625,-0.0010004333286555
-0.765,-0.00098581559052305
-0.76375,-0.000964571788771115
-0.7625,-0.000927730053380714
-0.76125,-0.000868440449977444
-0.76,-0.000783592696275677
-0.75875,-0.000674567733348301
-0.7575,-0.000547030956521472
-0.75625,-0.000409893881563724
-0.755,-0.000273635124262988
-0.75375,-0.000148245941879177
-0.7525,-4.12240859908951e-05
-0.75125,4.38842256720902e-05
-0.75,0.000108048841304405
-0.74875,0.00015635424051058
-0.7475,0.000196749702613881
-0.74625,0.000238173171078621
-0.745,0.000288419850860779
-0.74375,0.000352281671738237
-0.7425,0.000430438283229747
-0.74125,0.00051930417928497
-0.74,0.000611763968559814
-0.73875,0.000698619436709743
-0.7375,0.000770519454295264
-0.73625,0.000820005731420426
-0.735,0.000843178327064084
-0.73375,0.00084056074389061
-0.7325,0.000817003185019605
-0.73125,0.000780692497274319
-0.73,0.000741453563668935
-0.72875,0.000708647429716851
-0.7275,0.00068914351930738
-0.72625,0.000685891743178064
-0.725,0.000697414361878625
-0.72375,0.000718236291609859
-0.7225,0.000740104952561201
-0.72125,0.000753795754602789
-0.72,0.000751186983890062
-0.71875,0.000727129229306932
-0.7175,0.000680631349216182
-0.71625,0.000615104870459286
-0.715,0.000537670663699583
-0.71375,0.000457680599295355
-0.7125,0.000384712949489075
-0.71125,0.000326468650352837
-0.71,0.000287109456113279
-0.70875,0.000266447629968519
-0.7075,0.000260091526803891
-0.70625,0.000260428530051095
-0.705,0.000258256806850026
-0.70375,0.000244799726274331
-0.7025,0.000213678319538944
-0.70125,0.000162343227656481
-0.7,9.26240755747915e-05
-0.69875,1.03261721642774e-05
-0.6975,-7.60098801892546e-05
-0.69625,-0.000156969741961648
-0.695,-0.00022438385916278
-0.69375,-0.000273180811647217
-0.6925,-0.000302493970880381
-0.69125,-0.000315811488193103
-0.69,-0.000320231265936077
-0.68875,-0.000324994677828523
-0.6875,-0.000339531051743357
-0.68625,-0.0003713861656345
-0.685,-0.000424535746726982
-0.68375,-0.000498505856853114
-0.6825,-0.000588462188285538
-0.68125,-0.00068620042903179
-0.68,-0.000781851312629656
-0.67875,-0.00086598994571173
-0.6775,-0.000931667337335497
-0.67625,-0.000975838228668717
-0.675,-0.000999868848458253
-0.67375,-0.00100910915531436
-0.6725,-0.00101167972530757
-0.67125,-0.00101667701262123
-0.67,-0.00103211224202084
-0.66875,-0.00106305677546536
-0.6675,-0.00111046897041085
-0.66625,-0.00117095804490334
-0.665,-0.00123748001524923
-0.66375,-0.00130081325512685
-0.6625,-0.00135155618838297
-0.66125,-0.00138222222659156
-0.66,-0.00138889337496132
-0.65875,-0.00137202411957056
-0.6575,-0.00133629034606003
-0.65625,-0.00128959926295668
-0.655,-0.0012414466255946
-0.65375,-0.00120088797358366
-0.6525,-0.00117455210146291
-0.65125,-0.00116519925324266
-0.65,-0.001171168229574
-0.64875,-0.00118678299050833
-0.6475,-0.00120360216941857
-0.64625,-0.0012122926147751
-0.645,-0.00120475888030944
-0.64375,-0.00117600459065165
-0.6425,-0.00112524617373336
-0.64125,-0.00105607349601412
-0.64,-0.000975722254336534
-0.63875,-0.000893631709387468
-0.6375,-0.000819517485862084
-0.63625,-0.000761329651198124
-0.635,-0.000723592639724511
-0.63375,-0.000706542783537025
-0.6325,-0.000706219572227655
-0.63125,-0.000715439913255758
-0.63,-0.000725470341192651
-0.62875,-0.000728091220907275
-0.6275,-0.000717577020858917
-0.62625,-0.00069207398733432
-0.625,-0.000654065104673912
-0.62375,-0.000609908544409507
-0.6225,-0.000568596325810385
-0.62125,-0.00053993343519869
-0.62,-0.000532454010685808
-0.61875,-0.000551551712568823
-0.6175,-0.000598300542880441
-0.61625,-0.000669218178639548
-0.615,-0.00075696272405364
-0.61375,-0.00085180930453522
-0.6125,-0.000943651160824304
-0.61125,-0.00102410361777129
-0.61,-0.00108817409675662
-0.60875,-0.0011350892050746
-0.6075,-0.0011681721676536
-0.60625,-0.00119388552210815
-0.605,-0.00122022537221163
-0.60375,-0.00125473502259674
-0.6025,-0.00130256666142632
-0.60125,-0.0013650913529288
-0.6,-0.00143939755696126
-0.59875,-0.00151874525208481
-0.5975,-0.00159385553799196
-0.59625,-0.00165481013679672
-0.595,-0.0016931824451754
-0.59375,-0.00170386937909522
-0.5925,-0.00168614991216982
-0.59125,-0.00164377995417501
-0.59,-0.00158420232271623
-0.58875,-0.00151705274570582
-0.5875,-0.00145219513530215
-0.58625,-0.00139765841518681
-0.585,-0.00135797225431924
-0.58375,-0.00133331800831598
-0.5825,-0.00131965168327629
-0.58125,-0.00130972609318692
-0.58,-0.00129481700883119
-0.57875,-0.00126682675354994
-0.5775,-0.00122026729107152
-0.57625,-0.00115359834326759
-0.575,-0.00106962708116267
-0.57375,-0.00097498140605493
-0.5725,-0.0008788234661693
-0.57125,-0.000791013949578927
-0.57,-0.00072004586089502
-0.56875,-0.00067122000721514
-0.5675,-0.000645529832490059
-0.56625,-0.000639498894317779
-0.565,-0.000645952732064058
-0.56375,-0.000655559617591251
-0.5625,-0.000658869105753675
-0.56125,-0.000648411511976653
-0.56,-0.000620317967263004
-0.55875,-0.000575066594905031
-0.5575,-0.00051727051472116
-0.55625,-0.000454638488663484
-0.555,-0.000396301954989376
-0.55375,-0.000350781037489466
-0.5525,-0.000324021006681932
-0.55125,-0.000317997381804561
-0.55,-0.000330223904639399
-0.54875,-0.000354224635767431
-0.5475,-0.000380845985402563
-0.54625,-0.00040017889227628
-0.545,-0.000403707104660771
-0.54375,-0.000386146484465968
-0.5425,-0.000346502592287991
-0.54125,-0.000288162516443905
-0.54,-0.000218105796214556
-0.53875,-0.000145418383926197
-0.5375,-7.93440717864615e-05
-0.53625,-2.72459775570127e-05
-0.535,7.02687876475959e-06
-0.53375,2.39576842758039e-05
-0.5325,2.82149513039716e-05
-0.53125,2.76172208171484e-05
-0.53,3.14026908640751e-05
-0.52875,4.81243648505017e-05
-0.5275,8.36624680916537e-05
-0.52625,0.000139875723247892
-0.525,0.000214187004123469
-0.52375,0.000300097159467238
-0.5225,0.000388466734886057
-0.52125,0.000469358729091681
-0.52,0.000534122668436116
-0.51875,0.00057724311585886
-0.5175,0.000597480488302548
-0.51625,0.0005980584028484
-0.515,0.000585913324155455
-0.51375,0.000570168511923668
-0.5125,0.000560101115509286
-0.51125,0.000563040473597054
-0.51,0.000582742014203943
-0.50875,0.000618635565825411
-0.5075,0.000666033850927665
-0.50625,0.000717167750607205
-0.505,0.000762850786901054
-0.50375,0.000794499042170926
-0.5025,0.000806077092856973
-0.50125,0.000795475397966954
-0.5,0.000764988441987627
-0.49875,0.000720834538167761
-0.4975,0.000671841862036818
-0.49625,0.000627529982129963
-0.495,0.000595970464364577
-0.49375,0.000581961045581302
-0.4925,0.000585985494545872
-0.49125,0.000604143960070548
-0.49,0.000628970938783534
-0.48875,0.000650956609333677
-0.4875,0.000660531792187051
-0.48625,0.000650135842398216
-0.485,0.000615866890442084
-0.48375,0.000558303744826105
-0.4825,0.000482351933960282
-0.48125,0.000396193005921139
-0.48,0.000309534869946273
-0.47875,0.0002314904424243
-0.4775,0.000168581102035983
-0.47625,0.000123385812576467
-0.475,9.41264951193662e-05
-0.47375,7.51778908267388e-05
-0.4725,5.83372425402988e-05
-0.47125,3.46439327541474e-05
-0.47,-3.57086842488801e-06
-0.46875,-6.08776827970307e-05
-0.4675,-0.000137651471319353
-0.46625,-0.000229924056199917
-0.465,-0.00033016654775836
-0.46375,-0.000428836227401082
-0.4625,-0.000516414631740392
-0.46125,-0.000585495496256791
-0.46,-0.00063238093463611
-0.45875,-0.000657796024927864
-0.4575,-0.000666643736780944
-0.45625,-0.000666934704916422
-0.455,-0.000668087311045386
-0.45375,-0.000678872394342202
-0.4525,-0.000705436062794131
-0.45125,-0.000749899701817242
-0.45,-0.000809870677103784
-0.44875,-0.000878923804099641
-0.4475,-0.000947928015080274
-0.44625,-0.00100698494345289
-0.445,-0.00104758969416136
-0.44375,-0.00106447506564754
-0.4425,-0.00105666804113461
-0.44125,-0.00102757850058111
-0.44,-0.000984207040672567
-0.43875,-0.00093565593375357
-0.4375,-0.000891178893039386
-0.43625,-0.000858145351756504
-0.435,-0.000840415690818804
-0.43375,-0.000837534860863969
-0.4325,-0.000844889986109952
-0.43125,-0.000854753236503797
-0.43,-0.000858015090797978
-0.42875,-0.000846284228786684
-0.4275,-0.000813859739084748
-0.42625,-0.000759056151662864
-0.425,-0.000684591905696924
-0.42375,-0.000597053164337423
-0.4225,-0.00050559701405677
-0.42125,-0.000420104733392049
-0.42,-0.000349108485697699
-0.41875,-0.000297968511138761
-0.4175,-0.000267768572411558
-0.41625,-0.000255169046431466
-0.415,-0.000253195633986045
-0.41375,-0.000252794926311423
-0.4125,-0.000244880233089223
-0.41125,-0.000222424622053632
-0.41,-0.000182059716879365
-0.40875,-0.000124791126637609
-0.4075,-5.57539195203802e-05
-0.40625,1.68543775309461e-05
-0.405,8.34649846029728e-05
-0.40375,0.000135178708829733
-0.4025,0.000165726362637417
-0.40125,0.000172856346875272
-0.4,0.000158823221630358
-0.39875,0.000129921005860032
-0.3975,9.51842133867036e-05
-0.39625,6.44812857164191e-05
-0.395,4.63787377466023e-05
-0.39375,4.63057953889959e-05
-0.3925,6.54890688157403e-05
-0.39125,0.000100843387649328
-0.39,0.00014574108822381
-0.38875,0.000191482428627156
-0.3875,0.000229233076703416
-0.38625,0.000252050920657172
-0.385,0.000256503181402733
-0.38375,0.000243464690714766
-0.3825,0.000217950482338793
-0.38125,0.000188060575351547
-0.38,0.000163232863718221
-0.37875,0.000152131026095422
-0.3775,0.000160664415078552
-0.37625,0.000190659251048067
-0.375,0.000239468572500548
-0.37375,0.000300508112077386
-0.3725,0.00036455543608531
-0.37125,0.000421603900458294
-0.37,0.000462949018581866
-0.36875,0.000483030145678925
-0.3675,0.000480560883445046
-0.36625,0.000458710748543255
-0.365,0.000424359021321601
-0.36375,0.000386582029367499
-0.3625,0.000354636717327939
-0.36125,0.000335868905545886
-0.36,0.000334081537808619
-0.35875,0.000348759803788647
-0.3575,0.000375246859623793
-0.35625,0.000405749946903347
-0.355,0.000430989705065287
-0.35375,0.000442221285831639
-0.3525,0.000433194744981099
-0.35125,0.000401558007545795
-0.35,0.000349371791407294
-0.34875,0.000282674929107213
-0.3475,0.000210216929359928
-0.34625,0.000141576122035823
-0.345,8.50357892473723e-05
-0.34375,4.57455734004295e-05
-0.3425,2.46426204243021e-05
-0.34125,1.83286676037867e-05
-0.34,1.98329686316468e-05
-0.33875,2.00853450531843e-05
-0.3375,9.86403459666136e-06
-0.33625,-1.81603966446881e-05
-0.335,-6.77843970554569e-05
-0.33375,-0.000138442862001461
-0.3325,-0.000225339250891882
-0.33125,-0.000320458768758535
-0.33,-0.000414276186681162
-0.32875,-0.000497843947910874
-0.3275,-0.000564774864210742
-0.32625,-0.000612600326918531
-0.325,-0.000643204697288494
-0.32375,-0.000662335035534734
-0.3225,-0.000678341883107312
-0.32125,-0.000700358354565631
-0.32,-0.000736239958532144
-0.31875,-0.000790741141262242
-0.3175,-0.000864393952956286
-0.31625,-0.000953328095601916
-0.315,-0.00105001710078335
-0.31375,-0.00114479427985722
-0.3125,-0.00122787437819458
-0.31125,-0.00129144694231396
-0.31,-0.00133130289915658
-0.30875,-0.00134759934916066
-0.3075,-0.00134467271178374
-0.30625,-0.00133002314816738
-0.305,-0.00131265904820555
-0.30375,-0.00130107460249082
-0.3025,-0.00130129481452482
-0.30125,-0.00131548572964311
-0.3,-0.00134145961181441
-0.29875,-0.00137313322752389
-0.2975,-0.00140181703199408
-0.29625,-0.00141811054235754
-0.295,-0.00141402570740144
-0.29375,-0.00138480944334074
-0.2925,-0.00132999637566548
-0.29125,-0.00125350493281359
-0.29,-0.0011628533480414
-0.28875,-0.00106767204283571
-0.2875,-0.000977745751532271
-0.28625,-0.000900962770744721
-0.285,-0.000841669931862976
-0.28375,-0.000799841012697555
-0.2825,-0.00077120423254791
-0.28125,-0.000748253153008991
-0.28,-0.000721952765272751
-0.27875,-0.00068382625216274
-0.2775,-0.000627937169079898
-0.27625,-0.000552250048975593
-0.275,-0.00045907215232446
-0.27375,-0.000354574853083928
-0.2725,-0.000247547227455069
-0.27125,-0.00014758602964441
-0.27,-6.30433156608329e-05
-0.26875,7.91529259177229e-07
-0.2675,4.28091809734899e-05
-0.26625,6.62593529015042e-05
-0.265,7.8009757092207e-05
-0.26375,8.70430003309261e-05
-0.2625,0.000102453442517476
-0.26125,0.000131373677412468
-0.26,0.000177364894215832
-0.25875,0.000239663706476816
-0.2575,0.000313375833031526
-0.25625,0.000390496279118902
-0.255,0.000461569454613024
-0.25375,0.000517717040789604
-0.2525,0.000552599558170523
-0.25125,0.000563814671465687
-0.25,0.000553403732061341
-0.24875,0.000527408770774161
-0.2475,0.000494600221002008
-0.24625,0.000464595386637179
-0.245,0.00044573940248851
-0.24375,0.000443272440589892
-0.2425,0.000458251917865738
-0.24125,0.000487421232911825
-0.24,0.000523954689546195
-0.23875,0.000558907428306672
-0.2375,0.000583141072344759
-0.23625,0.00058935087046951
-0.235,0.000573698493552118
-0.23375,0.000536644722197865
-0.2325,0.000482835313901734
-0.23125,0.000420110770152437
-0.23,0.000357822328983845
-0.22875,0.000304764498285202
-0.2275,0.000267206414053832
-0.22625,0.0002475374359368
-0.225,0.000243825742940211
-0.22375,0.000250295038090233
-0.2225,0.000258569171704788
-0.22125,0.000259480224541783
-0.22,0.000245117383273722
-0.21875,0.000210639629827662
-0.2175,0.000155387670297076
-0.21625,8.30589580679998e-05
-0.215,9.64551128707432e-07
-0.21375,-8.14745257135757e-05
-0.2125,-0.0001547301213664
-0.21125,-0.000211241799109558
-0.21,-0.000247032557060663
-0.20875,-0.000262473548490681
-0.2075,-0.000262105207989819
-0.20625,-0.000253632154094813
-0.205,-0.000246276185501675
-0.20375,-0.00024875828249308
-0.2025,-0.000267342472676274
-0.20125,-0.000304436386560701
-0.2,-0.000358075265418512
-0.19875,-0.000422348420056165
-0.1975,-0.000488651621976884
-0.19625,-0.00054754917715192
-0.195,-0.000590876668755197
-0.19375,-0.000613562241781667
-0.1925,-0.00061469723955075
-0.19125,-0.000597662091964524
-0.19,-0.000569375638398075
-0.18875,-0.00053883986795322
-0.1875,-0.00051521202485813
-0.18625,-0.000505779776100702
-0.185,-0.000514335432115623
-0.18375,-0.000540355389825166
-0.1825,-0.000579131221417692
-0.18125,-0.000622778951890241
-0.18,-0.00066193989043867
-0.17875,-0.000687859126685299
-0.1775,-0.000694358798843408
-0.17625,-0.000679194192618745
-0.175,-0.000644498991001183
-0.17375,-0.000596316484482502
-0.1725,-0.000543364493393904
