t,low_f
-5.12,-0.0729723381314551
-5.11875,-0.0643806850419093
-5.1175,-0.0559798797000761
-5.11625,-0.0478727873830993
-5.115,-0.0401522244903684
-5.11375,-0.0328978390211395
-5.1125,-0.0261736801960744
-5.11125,-0.0200266788309379
-5.11,-0.0144861992965989
-5.10875,-0.00956472394724087
-5.1075,-0.00525959128099461
-5.10625,-0.00155554707882557
-5.105,0.00157226155136813
-5.10375,0.00415526772200956
-5.1025,0.00622883050478671
-5.10125,0.00783024888319913
-5.1,0.00899760727094424
-5.09875,0.00976942474910209
-5.0975,0.0101848967764746
-5.09625,0.0102844094423618
-5.095,0.0101099884585714
-5.09375,0.00970539319520401
-5.0925,0.00911565596160412
-5.09125,0.00838599700755512
-5.09,0.00756021121455022
-5.08875,0.00667877770468075
-5.0875,0.00577703048006479
-5.08625,0.00488373108600285
-5.085,0.00402032374158642
-5.08375,0.00320103721219559
-5.0825,0.00243382549816456
-5.08125,0.00172195280878332
-5.08,0.00106589725765401
-5.07875,0.000465206248978031
-5.0775,-8.0029617980935e-05
-5.07625,-0.000568333881728574
-5.075,-0.000996758424840745
-5.07375,-0.00136151823399635
-5.0725,-0.00165914347727041
-5.07125,-0.00188783110624726
-5.07,-0.0020486460896785
-5.06875,-0.00214625920896469
-5.0675,-0.00218900018153421
-5.06625,-0.00218815717990953
-5.065,-0.00215664313742611
-5.06375,-0.00210730634251778
-5.0625,-0.00205123472441202
-5.06125,-0.00199639066154882
-5.06,-0.00194684357256785
-5.05875,-0.00190275807633327
-5.0575,-0.00186114633005725
-5.05625,-0.00181722221933324
-5.055,-0.00176605703796056
-5.05375,-0.00170417818084649
-5.0525,-0.00163077184656012
-5.05125,-0.00154822670160288
-5.05,-0.00146189062154271
-5.04875,-0.0013790989851381
-5.0475,-0.00130771031404185
-5.04625,-0.00125448766206074
-5.045,-0.00122367679949726
-5.04375,-0.00121607848760526
-5.0425,-0.00122881571191214
-5.04125,-0.00125586135095518
-5.04,-0.00128922460065691
-5.03875,-0.00132053994196733
-5.0375,-0.00134271623324758
-5.03625,-0.00135129874319546
-5.035,-0.00134525234770626
-5.03375,-0.00132698557023697
-5.0325,-0.00130160658585977
-5.03125,-0.00127559101481641
-5.03,-0.00125517503881449
-5.02875,-0.00124483083956266
-5.0275,-0.00124614774146289
-5.02625,-0.00125735777637114
-5.025,-0.00127361908746842
-5.02375,-0.00128800787968287
-5.0225,-0.00129300211268604
-5.02125,-0.00128212702754618
-5.02,-0.00125140580637431
-5.01875,-0.00120030209241888
-5.0175,-0.00113193700157708
-5.01625,-0.00105251700311647
-5.015,-0.000970098782773299
-5.01375,-0.00089297393010266
-5.0125,-0.000828027017796744
-5.01125,-0.000779406582170253
-5.01,-0.000747777546142751
-5.00875,-0.000730313329831718
-5.0075,-0.000721436950716599
-5.00625,-0.000714150777480549
-5.005,-0.000701658215657107
-5.00375,-0.000678923382216224
-5.0025,-0.000643833884967468
-5.00125,-0.000597706538426654
-5,-0.000545010304365447
-4.99875,-0.00049236781296364
-4.9975,-0.000447074508454603
-4.99625,-0.000415474884108945
-4.995,-0.00040154459662275
-4.99375,-0.000405971926465796
-4.9925,-0.000425935717424283
-4.99125,-0.000455641386410508
-4.99,-0.000487509047832578
-4.98875,-0.000513754308100496
-4.9875,-0.000528018162357308
-4.98625,-0.000526699031964896
-4.985,-0.000509696610334438
-4.98375,-0.000480391067635605
-4.9825,-0.000444855124475991
-4.98125,-0.00041048479648692
-4.98,-0.000384363858377275
-4.97875,-0.000371715697551125
-4.9775,-0.000374761840062707
-4.97625,-0.000392224514421921
-4.975,-0.000419588075804068
-4.97375,-0.000450072817109705
-4.9725,-0.000476107726639813
-4.97125,-0.00049097508183989
-4.97,-0.0004902708208501
-4.96875,-0.000472865666094963
-4.9675,-0.000441147548919776
-4.96625,-0.000400480729482664
-4.965,-0.000358006238456384
-4.96375,-0.000321063048571061
-4.9625,-0.000295579981799959
-4.96125,-0.000284776626526156
-4.96,-0.000288442565571863
-4.95875,-0.000302954068403199
-4.9575,-0.000322038273962958
-4.95625,-0.000338125772696044
-4.955,-0.000343995742491899
-4.95375,-0.000334357964351938
-4.9525,-0.000307032326709295
-4.95125,-0.000263461626242279
-4.95,-0.000208430957330053
-4.94875,-0.000149055484107963
-4.9475,-9.32756814623724e-05
-4.94625,-4.82005947278342e-05
-4.945,-1.86510779978448e-05
-4.94375,-6.20006951264379e-06
-4.9425,-8.90970875228709e-06
-4.94125,-2.18293662815493e-05
-4.94,-3.81519674275296e-05
-4.93875,-5.07724163737391e-05
-4.9375,-5.39054210923865e-05
-4.93625,-4.44137770017254e-05
-4.935,-2.2553789081674e-05
-4.93375,8.041408910347e-06
-4.9325,4.11459557879266e-05
-4.93125,6.9308965099745e-05
-4.93,8.54900807071866e-05
-4.92875,8.46066297992856e-05
-4.9275,6.46716428881128e-05
-4.92625,2.72860220338254e-05
-4.925,-2.26292924186409e-05
-4.92375,-7.78160510939057e-05
-4.9225,-0.000130165806906846
-4.92125,-0.000172386307769669
-4.92,-0.00019949004862822
-4.91875,-0.000209785254242446
-4.9175,-0.000205143323019816
-4.91625,-0.000190473844297102
-4.915,-0.000172532469958777
-4.91375,-0.000158345038559388
-4.9125,-0.000153601693357286
-4.91125,-0.000161360593746677
-4.91,-0.000181329510563039
-4.90875,-0.00020988286095157
-4.9075,-0.000240823614651997
-4.90625,-0.000266730989278907
-4.905,-0.000280597587024809
-4.90375,-0.000277399843516983
-4.9025,-0.000255263266204748
-4.90125,-0.000215959828141487
-4.9,-0.000164611308863185
-4.89875,-0.000108659981145532
-4.8975,-5.63463561050399e-05
-4.89625,-1.50369850975797e-05
-4.895,1.02425605078772e-05
-4.89375,1.77701082178311e-05
-4.8925,9.38451920421332e-06
-4.89125,-1.00232096981286e-05
-4.89,-3.36784540549267e-05
-4.88875,-5.4490673360947e-05
-4.8875,-6.66751772484314e-05
-4.88625,-6.70796381558952e-05
-4.885,-5.59235085485039e-05
-4.88375,-3.67742648803633e-05
-4.8825,-1.57588942123382e-05
-4.88125,-1.96596103065321e-07
-4.88,3.03161877715962e-06
-4.87875,-1.09788901657454e-05
-4.8775,-4.40299989901802e-05
-4.87625,-9.43408954923674e-05
-4.875,-0.000156825788150719
-4.87375,-0.00022408131361695
-4.8725,-0.000287871890129972
-4.87125,-0.000340788583478083
-4.87,-0.000377726377101883
-4.86875,-0.000396863714633949
-4.8675,-0.00039992272706703
-4.86625,-0.000391642997679018
-4.865,-0.000378592048629676
-4.86375,-0.000367593116139156
-4.8625,-0.000364122378391726
-4.86125,-0.000371014272487957
-4.86,-0.000387742759174624
-4.85875,-0.000410436107843612
-4.8575,-0.00043263429925937
-4.85625,-0.000446630230026287
-4.855,-0.000445101225528476
-4.85375,-0.000422679453482954
-4.8525,-0.000377125954978999
-4.85125,-0.000309845420822971
-4.85,-0.000225613456474693
-4.84875,-0.000131576338863756
-4.8475,-3.57614333261118e-05
-4.84625,5.45625788883035e-05
-4.845,0.000134325821409137
-4.84375,0.000201602434885264
-4.8425,0.000257862796363985
-4.84125,0.000307471106786939
-4.84,0.000356533466296271
-4.83875,0.000411353361665897
-4.8375,0.000476835261988714
-4.83625,0.000555182348005657
-4.835,0.00064518032202423
-4.83375,0.000742245502265667
-4.8325,0.000839238936900531
-4.83125,0.000927857532115756
-4.83,0.00100028306751756
-4.82875,0.0010507322918235
-4.8275,0.0010765884382257
-4.82625,0.00107887932329285
-4.825,0.00106199096253555
-4.82375,0.00103266695743917
-4.8225,0.000998510658044845
-4.82125,0.000966319759462652
-4.82,0.000940610125245212
-4.81875,0.00092264413890993
-4.8175,0.000910185081759455
-4.81625,0.000898044848298564
-4.815,0.000879299597596417
-4.81375,0.000846888484732702
-4.8125,0.000795239410125281
-4.81125,0.000721580832626427
-4.81,0.000626670568978049
-4.80875,0.000514783169593743
-4.8075,0.000392946477143044
-4.80625,0.000269587707024395
-4.805,0.000152886846920709
-4.80375,4.91942838813552e-05
-4.8025,-3.81490926851374e-05
-4.80125,-0.000109328226829454
-4.8,-0.000167783106593941
-4.79875,-0.000219214771003446
-4.7975,-0.000270108053760699
-4.79625,-0.000326110854653796
-4.795,-0.000390619904143137
-4.79375,-0.000463868022230707
-4.7925,-0.000542710932388294
-4.79125,-0.000621174975982332
-4.79,-0.000691657868048734
-4.78875,-0.00074651964323055
-4.7875,-0.000779716426161822
-4.78625,-0.000788126273912754
-4.785,-0.000772273135559664
-4.78375,-0.000736271896798365
-4.7825,-0.000686996952697246
-4.78125,-0.000632668179260101
-4.78,-0.000581176824742517
-4.77875,-0.000538509967343207
-4.7775,-0.000507594120312002
-4.77625,-0.00048779330050463
-4.775,-0.000475173306518188
-4.77375,-0.00046348371063311
-4.7725,-0.000445643643895963
-4.77125,-0.000415403900683953
-4.77,-0.000368826040812141
-4.76875,-0.000305256351218167
-4.7675,-0.000227568722313745
-4.76625,-0.000141611618773065
-4.765,-5.49899232235021e-05
-4.76375,2.45312712519632e-05
-4.7625,9.06461824640373e-05
-4.76125,0.000139812212790898
-4.76,0.000171970234257018
-4.75875,0.000190523542302387
-4.7575,0.000201567465545246
-4.75625,0.000212532211713624
-4.755,0.000230538481193907
-4.75375,0.000260823253143352
-4.7525,0.000305574032502869
-4.75125,0.000363432768007871
-4.75,0.000429792401873317
-4.74875,0.000497819904465251
-4.7475,0.000559962547128672
-4.74625,0.000609594649917781
-4.745,0.000642453219196595
-4.74375,0.000657567509709828
-4.7425,0.000657485808156852
-4.74125,0.000647739644897101
-4.74,0.000635653355886449
-4.73875,0.000628760012775353
-4.7375,0.000633169262015699
-4.73625,0.000652237199229069
-4.735,0.000685831212096202
-4.73375,0.000730364690873245
-4.7325,0.000779598311600688
-4.73125,0.000826016208293466
-4.73,0.000862458472481715
-4.72875,0.000883655003911803
-4.7275,0.000887342647187205
-4.72625,0.000874732068353173
-4.725,0.000850214854504253
-4.72375,0.000820362746978647
-4.7225,0.00079243674125866
-4.72125,0.000772735753265113
-4.72,0.000765142349780325
-4.71875,0.000770181331582376
-4.7175,0.000784810142711009
-4.71625,0.000803002393314357
-4.715,0.000816992507078212
-4.71375,0.00081889281927835
-4.7125,0.000802326877945616
-4.71125,0.000763740075148663
-4.71,0.00070312191044168
-4.70875,0.000623986221637991
-4.7075,0.000532605132739971
-4.70625,0.000436660198867555
-4.705,0.000343607999639033
-4.70375,0.000259113642111138
-4.7025,0.000185886609795035
-4.70125,0.000123177926271145
-4.7,6.70621637766061e-05
-4.69875,1.14412203764513e-05
-4.6975,-5.04700308480502e-05
-4.69625,-0.000124517095403314
-4.695,-0.00021418928160525
-4.69375,-0.000319708207068069
-4.6925,-0.000437817892147537
-4.69125,-0.000562335620073455
-4.69,-0.000685355158911113
-4.68875,-0.000798840646409361
-4.6875,-0.000896264309698049
-4.68625,-0.000973937823045541
-4.685,-0.00103174638492042
-4.68375,-0.00107311136384353
-4.6825,-0.00110418205583898
-4.68125,-0.00113244532516539
-4.68,-0.00116507251747118
-4.67875,-0.00120736255002303
-4.6775,-0.00126160292835445
-4.67625,-0.00132658344530352
-4.675,-0.00139787121354148
-4.67375,-0.00146879425003769
-4.6725,-0.00153191675492085
-4.67125,-0.00158067924527688
-4.67,-0.00161084945592624
-4.66875,-0.00162147034357315
-4.6675,-0.00161508657928357
-4.66625,-0.00159718682837817
-4.665,-0.00157499005761333
-4.66375,-0.00155585956640483
-4.6625,-0.00154569772292756
-4.66125,-0.00154765958993894
-4.66,-0.00156145142833169
-4.65875,-0.00158336812860507
-4.6575,-0.00160707413596602
-4.65625,-0.00162496415272455
-4.655,-0.00162980581416243
-4.65375,-0.00161631024659661
-4.6525,-0.00158229472732817
-4.65125,-0.00152917729996268
-4.65,-0.00146168087871502
-4.64875,-0.0013868125949036
-4.6475,-0.00131236011322735
-4.64625,-0.00124524623237828
-4.645,-0.00119009269623188
-4.64375,-0.00114828783792205
-4.6425,-0.00111775402017927
-4.64125,-0.00109347329574077
-4.64,-0.00106866224844771
-4.63875,-0.00103633541326778
-4.6375,-0.000990913850921441
-4.63625,-0.000929532097935669
-4.635,-0.000852754268591618
-4.63375,-0.000764526260112138
-4.6325,-0.000671366080310913
-4.63125,-0.000580981656423373
-4.63,-0.000500633706850762
-4.62875,-0.000435599101001466
-4.6275,-0.000388053936503115
-4.62625,-0.000356610725161239
-4.625,-0.000336618218360199
-4.62375,-0.000321169540399943
-4.6225,-0.000302599745916779
-4.62125,-0.000274144650714901
-4.62,-0.000231406168980086
-4.61875,-0.000173310204165088
-4.6175,-0.000102338576418534
-4.61625,-2.39728478026863e-05
-4.615,5.45206901417511e-05
-4.61375,0.000125680240887246
-4.6125,0.000183458842460357
-4.61125,0.000224517934826113
-4.61,0.000248937762258231
-4.60875,0.000260189689942377
-4.6075,0.000264365804273072
-4.60625,0.000268830330584884
-4.605,0.000280591253473456
-4.60375,0.000304745457815056
-4.6025,0.000343330800713142
-4.60125,0.000394842724059949
-4.6,0.000454536919709982
-4.59875,0.000515452920028415
-4.5975,0.000569917976439244
-4.59625,0.000611190669263704
-4.595,0.000634893509887838
-4.59375,0.000639939611033457
-4.5925,0.000628756752984667
-4.59125,0.000606749867425214
-4.59,0.000581112095494644
-4.58875,0.00055924837343532
-4.5875,0.000547158411775343
-4.58625,0.000548126518141525
-4.585,0.000562004677030373
-4.58375,0.000585257641058283
-4.5825,0.000611765109568274
-4.58125,0.000634191002463828
-4.58,0.000645602697273936
-4.57875,0.00064098586524605
-4.5775,0.000618338549378541
-4.57625,0.000579115338591092
-4.575,0.000527918659573016
-4.57375,0.000471494910521513
-4.5725,0.000417255475092377
-4.57125,0.000371650080949905
-4.57,0.000338743785066381
-4.56875,0.000319305012611616
-4.5675,0.000310615745489362
-4.56625,0.00030706070451898
-4.565,0.000301364202950765
-4.56375,0.000286190186508682
-4.5625,0.000255753505998581
-4.56125,0.000207105804589705
-4.56,0.000140830466985029
-4.55875,6.09925226251329e-05
-4.5575,-2.56597786959755e-05
-4.55625,-0.000111075053823166
-4.555,-0.00018755867097364
-4.55375,-0.000249354754091411
-4.5525,-0.00029381371665405
-4.55125,-0.000321886501568859
-4.55,-0.000337824120880935
-4.54875,-0.000348149675533431
-4.5475,-0.00036014780298848
-4.54625,-0.000380216280731973
-4.545,-0.000412432399992906
-4.54375,-0.000457629005545103
-4.5425,-0.000513175812385585
-4.54125,-0.000573523436183273
-4.54,-0.000631399070405815
-4.53875,-0.000679389892761778
-4.5375,-0.000711566722722878
-4.53625,-0.000724797784903003
-4.535,-0.000719462501817316
-4.53375,-0.000699394798246383
-4.5325,-0.000671062095119255
-4.53125,-0.000642172427697811
-4.53,-0.000620028863234488
-4.52875,-0.000609987549556481
-4.5275,-0.000614338285419394
-4.52625,-0.00063184018255768
-4.525,-0.000658019398773424
-4.52375,-0.000686174525509316
-4.5225,-0.00070887117391442
-4.52125,-0.000719597278027573
-4.52,-0.000714222624806353
-4.51875,-0.00069194586450206
-4.5175,-0.000655508933053685
-4.51625,-0.000610618991359999
-4.515,-0.000564712630933453
-4.51375,-0.000525352516185661
-4.5125,-0.00049861261964546
-4.51125,-0.000487790115519204
-4.51,-0.000492708339751564
-4.50875,-0.000509762147640119
-4.5075,-0.000532705900692701
-4.50625,-0.000554015852747582
-4.505,-0.00056652635106472
-4.50375,-0.000564985113359396
-4.5025,-0.000547193206970314
-4.50125,-0.000514473204512565
-4.5,-0.000471348725896859
-4.49875,-0.00042450741765443
-4.4975,-0.00038129338673692
-4.49625,-0.000348071327783765
-4.495,-0.000328811939373824
-4.49375,-0.000324191172075252
-4.4925,-0.000331396753699636
-4.49125,-0.000344696971766989
-4.49,-0.000356657736330512
-4.48875,-0.000359741198109582
-4.4875,-0.000347937328212943
-4.48625,-0.000318079844273504
-4.485,-0.000270558907976679
-4.48375,-0.000209261397773417
-4.4825,-0.000140745474000413
-4.48125,-7.28428228757965e-05
-4.48,-1.30086415613473e-05
-4.47875,3.32242769132117e-05
-4.4775,6.33685818220917e-05
-4.47625,7.84493327906882e-05
-4.475,8.27074313116119e-05
-4.47375,8.25950915104848e-05
-4.4725,8.5284926940435e-05
-4.47125,9.70247801989876e-05
-4.47,0.000121695686971633
-4.46875,0.000159885405741432
-4.4675,0.000208690355183621
-4.46625,0.000262301048908934
-4.465,0.000313236199706033
-4.46375,0.000353937978602882
-4.4625,0.000378375271353697
-4.46125,0.000383319412087462
-4.46,0.000369029599490933
-4.45875,0.000339196709835775
-4.4575,0.000300144310700415
-4.45625,0.000259455202686677
-4.455,0.000224326348573402
-4.45375,0.000200009392140612
-4.4525,0.000188671483159553
-4.45125,0.000188932271668439
-4.45,0.000196193786576225
-4.44875,0.000203690066934204
-4.4475,0.000204007247061918
-4.44625,0.000190728443445689
-4.445,0.00015985253204327
-4.44375,0.000110695451776606
-4.4425,4.60834647693847e-05
-4.44125,-2.82137857362751e-05
-4.44,-0.000104695190170961
-4.43875,-0.000175718570631339
-4.4375,-0.000235121974873875
-4.43625,-0.000279529027506497
-4.435,-0.000309053307897348
-4.43375,-0.000327234833628781
-4.4325,-0.000340216413368417
-4.43125,-0.000355353308541514
-4.43,-0.000379575797725605
-4.42875,-0.000417860086506753
-4.4275,-0.000472125048525819
-4.42625,-0.000540786236936357
-4.425,-0.000619072328117812
-4.42375,-0.000700046513927345
-4.4225,-0.00077611117952238
-4.42125,-0.000840665149108552
-4.42,-0.000889556934810671
-4.41875,-0.000922020282519878
-4.4175,-0.00094087610936643
-4.41625,-0.000951942878221519
-4.415,-0.000962789717973582
-4.41375,-0.000981121788944647
-4.4125,-0.00101315394663841
-4.41125,-0.00106231075798013
-4.41,-0.00112851736085207
-4.40875,-0.00120823291542624
-4.4075,-0.00129522731450126
-4.40625,-0.00138193313896329
-4.405,-0.00146107274941269
-4.40375,-0.0015272067485149
-4.4025,-0.00157787027427334
-4.40125,-0.00161404081341901
-4.4,-0.00163982073576208
-4.39875,-0.00166140700054904
-4.3975,-0.00168559453749186
-4.39625,-0.00171815491151858
-4.395,-0.00176243803440528
-4.39375,-0.00181848777691383
-4.3925,-0.00188286400904854
-4.39125,-0.00194922517608197
-4.39,-0.00200955611933879
-4.38875,-0.00205577360693134
-4.3875,-0.00208136186072893
-4.38625,-0.00208269154758053
-4.385,-0.0020597362656181
-4.38375,-0.00201601733540171
-4.3825,-0.00195778256965939
-4.38125,-0.00189261214046882
-4.38,-0.00182777290512257
-4.37875,-0.00176867897711503
-4.3775,-0.00171777688091391
-4.37625,-0.00167408553947615
-4.375,-0.00163349414428957
-4.37375,-0.00158975867235744
-4.3725,-0.00153597519895261
-4.37125,-0.00146620194785059
-4.37,-0.00137687863317184
-4.36875,-0.00126773482525158
-4.3675,-0.00114197592890281
-4.36625,-0.00100569189923583
-4.365,-0.000866623721346388
-4.36375,-0.00073257551444248
-4.3625,-0.000609825437591461
-4.36125,-0.000501869898368812
-4.36,-0.000408761566285697
-4.35875,-0.000327188834512695
-4.3575,-0.000251292859148311
-4.35625,-0.000174049034404313
-4.355,-8.89085941833528e-05
-4.35375,8.65462233181247e-06
-4.3525,0.000120023965773708
-4.35125,0.000242999955062477
-4.35,0.000372155335883423
-4.34875,0.000499911077613915
-4.3475,0.00061808347780082
-4.34625,0.000719554903578657
-4.345,0.000799713584192861
-4.34375,0.000857367380150589
-4.3425,0.000894939910621479
-4.34125,0.000917899518503548
-4.34,0.00093354063013503
-4.33875,0.000949386664641161
-4.3375,0.000971561964194373
-4.33625,0.00100347907244953
-4.335,0.00104512755306702
-4.33375,0.00109313259020799
-4.3325,0.00114157501712446
-4.33125,0.00118337747131629
-4.33,0.00121193562282512
-4.32875,0.00122263869610361
-4.3275,0.00121396258975055
-4.32625,0.00118790567844438
-4.325,0.00114966384033089
-4.32375,0.00110660384721854
-4.3225,0.00106675759258944
-4.32125,0.00103716625924134
-4.32,0.00102242743198686
-4.31875,0.00102375575425472
-4.3175,0.00103877070393705
-4.31625,0.00106206741930145
-4.315,0.0010864362276753
-4.31375,0.00110444420667442
-4.3125,0.0011100267552862
-4.31125,0.00109975516310917
-4.31,0.00107351998402436
-4.30875,0.0010344826212515
-4.3075,0.000988297195930779
-4.30625,0.000941771794483812
-4.305,0.000901269258396205
-4.30375,0.000871199664180992
-4.3025,0.000852933617169156
-4.30125,0.000844386556716626
-4.3,0.000840385754144223
-4.29875,0.000833744687982604
-4.2975,0.000816796392507064
-4.29625,0.000783041623745562
-4.295,0.000728561589678859
-4.29375,0.000652903935411577
-4.2925,0.000559251660794099
-4.29125,0.000453824525495955
-4.29,0.000344631355604136
-4.28875,0.000239842728873274
-4.2875,0.000146134343424183
-4.28625,6.73519562423285e-05
-4.285,3.78751076885755e-06
-4.28375,-4.77645933944266e-05
-4.2825,-9.31808837680548e-05
-4.28125,-0.000139610264009781
-4.28,-0.000193828325421818
-4.27875,-0.000260702445435418
-4.2775,-0.00034208419952474
-4.27625,-0.000436357874991718
-4.275,-0.000538747337876066
-4.27375,-0.000642320995948149
-4.2725,-0.000739471832301042
-4.27125,-0.000823543671499996
-4.27,-0.000890251836845095
-4.26875,-0.000938589829487993
-4.2675,-0.000971011276939903
-4.26625,-0.000992834003654578
-4.265,-0.00101100307902896
-4.26375,-0.0010325015075795
-4.2625,-0.00106276214311085
-4.26125,-0.00110441635635828
-4.26,-0.00115664088056954
-4.25875,-0.00121525024748085
-4.2575,-0.00127352986370075
-4.25625,-0.00132363488419069
-4.255,-0.0013582477582728
-4.25375,-0.00137213634088918
-4.2525,-0.00136327974637989
-4.25125,-0.00133331077238235
-4.25,-0.00128716494994762
-4.24875,-0.00123201494011621
-4.2475,-0.0011757415167659
-4.24625,-0.00112528548435356
-4.245,-0.00108522849275266
-4.24375,-0.00105689159606477
-4.2425,-0.00103814100289425
-4.24125,-0.00102395186673418
-4.24,-0.00100761228277097
-4.23875,-0.000982298866289065
-4.2375,-0.000942676581365626
-4.23625,-0.000886178162181819
-4.235,-0.000813680781644422
-4.23375,-0.000729415929119294
-4.2325,-0.000640123831720181
-4.23125,-0.000553649968759493
-4.23,-0.000477306500027207
-4.22875,-0.000416354571276293
-4.2275,-0.000372922486085379
-4.22625,-0.000345587108902218
-4.225,-0.000329718730102464
-4.22375,-0.000318525727061913
-4.2225,-0.000304571679413418
-4.22125,-0.000281432392422749
-4.22,-0.000245138447313127
-4.21875,-0.000195093381521914
-4.2175,-0.000134256075144004
-4.21625,-6.85340678270927e-05
-4.215,-5.52571921679246e-06
-4.21375,4.709699482655e-05
-4.2125,8.32076162830623e-05
-4.21125,9.95083034840032e-05
-4.21,9.62146778514975e-05
-4.20875,7.69948934338396e-05
-4.2075,4.81674000137579e-05
-4.20625,1.73304331743221e-05
-4.205,-8.27271263892367e-06
-4.20375,-2.32976591250263e-05
-4.2025,-2.5421441249913e-05
-4.20125,-1.57926935747593e-05
-4.2,1.30207656182164e-06
-4.19875,1.94804325900645e-05
-4.1975,3.17661310442734e-05
-4.19625,3.22091894569612e-05
-4.195,1.72763411701206e-05
-4.19375,-1.32773886792391e-05
-4.1925,-5.62453062651363e-05
-4.19125,-0.000105564031003129
-4.19,-0.000153548452693304
-4.18875,-0.000192497054734851
-4.1875,-0.000216317563794523
-4.18625,-0.000221824617829726
-4.185,-0.000209425368356269
-4.18375,-0.000183030414406145
-4.1825,-0.000149204092208107
-4.18125,-0.000115753376861716
-4.18,-9.00787762199396e-05
-4.17875,-7.76430678341805e-05
-4.1775,-8.08715253928796e-05
-4.17625,-9.87085073212646e-05
-4.175,-0.000126929547975933
-4.17375,-0.000159147830739282
-4.1725,-0.000188292294748937
-4.17125,-0.000208228689580382
-4.17,-0.000215172170371642
-4.16875,-0.000208584424799122
-4.1675,-0.000191346396892786
-4.16625,-0.000169154706868697
-4.165,-0.000149279065976909
-4.16375,-0.000138969476153784
-4.1625,-0.000143866608399238
-4.16125,-0.000166750313800206
-4.16,-0.000206887130651596
-4.15875,-0.000260123577184472
-4.1575,-0.000319719676936956
-4.15625,-0.000377748406690467
-4.155,-0.000426755293805685
-4.15375,-0.000461319995139232
-4.1525,-0.00047918540182327
-4.15125,-0.000481702199412886
-4.15,-0.000473479410527498
-4.14875,-0.000461319963781906
-4.1475,-0.000452692382087472
-4.14625,-0.000454083591114614
-4.145,-0.00046958249447571
-4.14375,-0.000499984439392574
-4.1425,-0.000542605608745586
-4.14125,-0.000591856319555755
-4.14,-0.000640453414475876
-4.13875,-0.000681002057581547
-4.1375,-0.000707599605871791
-4.13625,-0.000717117800251948
-4.135,-0.000709882403687887
-4.13375,-0.000689587806479358
-4.1325,-0.000662458851196629
-4.13125,-0.00063585674100887
-4.13,-0.000616649713394671
-4.12875,-0.000609702674976618
-4.1275,-0.000616800577293538
-4.12625,-0.000636233364597684
-4.125,-0.000663143143767548
-4.12375,-0.000690570834818499
-4.1225,-0.000710975509589388
-4.12125,-0.000717891972948382
-4.12,-0.000707368730202032
-4.11875,-0.000678874974911996
-4.1175,-0.000635467860390144
-4.11625,-0.000583172427596399
-4.115,-0.000529717050133866
-4.11375,-0.00048291733094057
-4.1125,-0.000449063542040779
-4.11125,-0.000431646216234768
-4.11,-0.000430679171326672
-4.10875,-0.000442764980590415
-4.1075,-0.00046189625423539
-4.10625,-0.000480818044101302
-4.105,-0.000492646653136244
-4.10375,-0.000492391409435891
-4.1025,-0.000478052961201265
-4.10125,-0.000451052548903943
-4.1,-0.000415884405232576
-4.09875,-0.000379068244982609
-4.0975,-0.00034764938208523
-4.09625,-0.000327587717006888
-4.095,-0.000322382392720801
-4.09375,-0.000332220457094548
-4.0925,-0.000353836642051828
-4.09125,-0.00038112997142632
-4.09,-0.000406412844246824
-4.08875,-0.000422018836782224
-4.0875,-0.000421919804338891
-4.08625,-0.00040300769114798
-4.085,-0.000365759874893634
-4.08375,-0.000314127150847246
-4.0825,-0.000254661114710765
-4.08125,-0.000195084123141855
-4.08,-0.000142628491297165
-4.07875,-0.000102502776318253
-4.0775,-7.68003847669301e-05
-4.07625,-6.40763202758127e-05
-4.075,-5.96893535920668e-05
-4.07375,-5.6842873783302e-05
-4.0725,-4.80946729395188e-05
-4.07125,-2.70020187036647e-05
-4.07,1.04509655634658e-05
-4.06875,6.49496883007604e-05
-4.0675,0.000133676019385792
-4.06625,0.000210915074615903
-4.065,0.000289302338965667
-4.06375,0.000361420971585039
-4.0625,0.000421395062427664
-4.06125,0.000466143580061796
-4.06,0.000496035084556156
-4.05875,0.000514798593597534
-4.0575,0.000528698533007732
-4.05625,0.000545149221575759
-4.055,0.000571072886182707
-4.05375,0.000611354673744869
-4.0525,0.000667724906931209
-4.05125,0.000738320274616367
-4.05,0.000818035677120905
-4.04875,0.000899589124146518
-4.0475,0.000975048663353949
-4.04625,0.0010374768631805
-4.045,0.00108234504975606
-4.04375,0.00110843001699312
-4.0425,0.00111800689147559
-4.04125,0.00111628936862254
-4.04,0.00111023313035347
-4.03875,0.00110696583517717
-4.0375,0.00111218734864817
-4.03625,0.0011288866052041
-4.035,0.00115666259052814
-4.03375,0.00119181567179996
-4.0325,0.00122819447473091
-4.03125,0.00125859586312079
-4.03,0.00127639318592406
-4.02875,0.00127703730515375
-4.0275,0.00125911687982432
-4.02625,0.00122475324230791
-4.025,0.00117923318667594
-4.02375,0.00112994583409819
-4.0225,0.00108485213633276
-4.02125,0.00105082094590245
-4.02,0.00103218735002089
-4.01875,0.00102984282977011
-4.0175,0.00104106589178784
-4.01625,0.00106014163455609
-4.015,0.00107962732158952
-4.01375,0.00109196950575787
-4.0125,0.00109111607618274
-4.01125,0.00107378850336062
-4.01,0.00104015591398295
-4.00875,0.000993766730458402
-4.0075,0.000940744700740957
-4.00625,0.000888423481742289
-4.005,0.000843723098421532
-4.00375,0.000811621124599345
-4.0025,0.000794047786559194
-4.00125,0.00078945568703917
-4,0.000793175248927589
-3.99875,0.000798477792685791
-3.9975,0.000798094564725394
-3.99625,0.000785846090846614
-3.995,0.000758032504291682
-3.99375,0.000714296342981541
-3.9925,0.00065777188424038
-3.99125,0.000594475915876882
-3.99,0.000532063302070478
-3.98875,0.000478219931817051
-3.9875,0.000439043274797906
-3.98625,0.000417757438675481
-3.985,0.000414045072455608
-3.98375,0.000424155618608178
-3.9825,0.000441770793368907
-3.98125,0.000459423654839435
-3.98,0.000470146598601887
-3.97875,0.000468992824392137
-3.9775,0.000454117153148716
-3.97625,0.000427190383506727
-3.975,0.000393049599102341
-3.97375,0.00035865063297718
-3.9725,0.000331551676668541
-3.97125,0.000318261971472963
-3.97,0.000322810863748433
-3.96875,0.000345845940486774
-3.9675,0.000384467213554305
-3.96625,0.000432843616213564
-3.965,0.000483468073659495
-3.96375,0.000528758779440214
-3.9625,0.000562653679387516
-3.96125,0.000581865743481791
-3.96,0.000586540202452404
-3.95875,0.000580167304898016
-3.9575,0.000568755905440361
-3.95625,0.000559443186488765
-3.955,0.000558848344961804
-3.95375,0.000571529454163056
-3.9525,0.000598877174909589
-3.95125,0.000638696042435359
-3.95,0.000685581360560988
-3.94875,0.00073201039095328
-3.9475,0.000769894034641118
-3.94625,0.00079224171803857
-3.945,0.00079458788243217
-3.94375,0.000775888958985805
-3.9425,0.000738703424244186
-3.94125,0.000688609887780245
-3.94,0.000632986228019638
-3.93875,0.000579419866003281
-3.9375,0.000534095697581421
-3.93625,0.000500506131913222
-3.935,0.000478765904642065
-3.93375,0.000465694104034602
-3.9325,0.000455648168555542
-3.93125,0.000441909133073372
-3.93,0.000418295029664242
-3.92875,0.000380648007714368
-3.9275,0.000327882176752059
-3.92625,0.000262367520077106
-3.925,0.000189553018259629
-3.92375,0.000116895496414837
-3.9225,5.23235584936264e-05
-3.92125,2.57131733962002e-06
-3.92,-2.82613844517659e-05
-3.91875,-3.96115657300987e-05
-3.9175,-3.4609786005255e-05
-3.91625,-1.94441528692661e-05
-3.915,-2.07703628329922e-06
-3.91375,9.38928223453761e-06
-3.9125,8.34021674527322e-06
-3.91125,-9.06661510816552e-06
-3.91,-4.32201234025119e-05
-3.90875,-9.11219112873592e-05
-3.9075,-0.000147190348806627
-3.90625,-0.000204624902225699
-3.905,-0.000257024957312709
-3.90375,-0.000299909068787384
-3.9025,-0.000331805598171354
-3.90125,-0.000354666235629949
-3.9,-0.00037349497953552
-3.89875,-0.000395273908208226
-3.8975,-0.000427438584196087
-3.89625,-0.000476247629381266
-3.895,-0.000545393925749518
-3.89375,-0.000635144838835396
-3.8925,-0.000742197314428002
-3.89125,-0.000860293019824352
-3.89,-0.000981469594948463
-3.88875,-0.00109767420045761
-3.8875,-0.00120238797706094
-3.88625,-0.00129191405781241
-3.885,-0.00136604685638823
-3.88375,-0.0014279633236493
-3.8825,-0.00148335600639379
-3.88125,-0.00153901348909128
-3.88,-0.00160117563946985
-3.87875,-0.00167402077445526
-3.8775,-0.00175859766443013
-3.87625,-0.00185242498626705
-3.875,-0.00194985323189168
-3.87375,-0.00204312176681557
-3.8725,-0.0021238818647619
-3.87125,-0.00218485305277467
-3.87,-0.00222126028246589
-3.86875,-0.00223174537226498
-3.8675,-0.0022185456726188
-3.86625,-0.00218689223486512
-3.865,-0.002143770052013
-3.86375,-0.00209633264158021
-3.8625,-0.00205032453581797
-3.86125,-0.00200884428779306
-3.86,-0.00197170534690273
-3.85875,-0.00193553700040072
-3.8575,-0.00189461407733454
-3.85625,-0.00184223643460937
-3.855,-0.00177235245759459
-3.85375,-0.00168107382073444
-3.8525,-0.0015677540692709
-3.85125,-0.00143538369072771
-3.85,-0.00129019524491651
-3.84875,-0.00114056095516693
-3.8475,-0.000995436200697009
-3.84625,-0.000862693199471473
-3.845,-0.000747692056064156
-3.84375,-0.000652377317777276
-3.8425,-0.0005750877661211
-3.84125,-0.000511127328066936
-3.84,-0.000453976667489273
-3.83875,-0.000396875388027779
-3.8375,-0.000334426124260844
-3.83625,-0.000263873969436269
-3.835,-0.000185778569564967
-3.83375,-0.000103918716946427
-3.8325,-2.44475679582137e-05
-3.83125,4.54989590287386e-05
-3.83,9.94167197915658e-05
-3.82875,0.000132916063510835
-3.8275,0.000144760290908478
-3.82625,0.000137237172141333
-3.825,0.000115769893901474
-3.82375,8.78381962558714e-05
-3.8225,6.14436868921913e-05
-3.82125,4.34565746386692e-05
-3.82,3.81982519288839e-05
-3.81875,4.65638385606519e-05
-3.8175,6.5885694217476e-05
-3.81625,9.05789205662201e-05
-3.815,0.000113421470050148
-3.81375,0.00012717389323662
-3.8125,0.000126183298989028
-3.81125,0.000107637335527879
-3.81,7.22099294344533e-05
-3.80875,2.39564319605126e-05
-3.8075,-3.05295995401275e-05
-3.80625,-8.35159596744225e-05
-3.805,-0.000127777226537443
-3.80375,-0.000158129575291087
-3.8025,-0.000172526655350798
-3.80125,-0.000172470921074035
-3.8,-0.000162636853846411
-3.79875,-0.00014979080188931
-3.7975,-0.000141261996327677
-3.79625,-0.000143309480483983
-3.795,-0.000159731879422619
-3.79375,-0.00019100631007124
-3.7925,-0.000234140378030651
-3.79125,-0.000283280199489376
-3.79,-0.000330949468480198
-3.78875,-0.000369647257721885
-3.7875,-0.00039345682244364
-3.78625,-0.000399321715291744
-3.785,-0.000387708709848919
-3.78375,-0.000362497957529818
-3.7825,-0.000330118708165559
-3.78125,-0.000298134082700171
-3.78,-0.000273600285512558
-3.77875,-0.000261556046834198
-3.7775,-0.00026395436744944
-3.77625,-0.000279257548900007
-3.775,-0.000302787961077086
-3.77375,-0.000327766241464137
-3.7725,-0.000346810072835739
-3.77125,-0.000353564140905685
-3.77,-0.000344109671145433
-3.76875,-0.000317846220769452
-3.7675,-0.0002776396945339
-3.76625,-0.000229192555992462
-3.765,-0.00017978294902945
-3.76375,-0.000136668018652415
-3.7625,-0.000105506814754706
-3.76125,-8.91356114139371e-05
-3.76,-8.69510692589277e-05
-3.75875,-9.50399972055243e-05
-3.7575,-0.000107040566576096
-3.75625,-0.000115551904070438
-3.755,-0.000113782024626571
-3.75375,-9.70780852777255e-05
-3.7525,-6.40105275324535e-05
-3.75125,-1.67654412014523e-05
-3.75,3.92574487982998e-05
-3.74875,9.65541343973654e-05
-3.7475,0.00014707510471857
-3.74625,0.000183885132127235
-3.745,0.00020257438060143
-3.74375,0.000202133574405189
-3.7425,0.000185109864984174
-3.74125,0.00015700257828686
-3.74,0.00012502739185012
-3.73875,9.65243540133404e-05
-3.7375,7.73581909477765e-05
-3.73625,7.06531579686731e-05
-3.735,7.6139906737896e-05
-3.73375,9.02695555295241e-05
-3.7325,0.000107072799316982
-3.73125,0.000119559844782589
-3.73,0.000121338486223607
-3.72875,0.000108098283155005
-3.7275,7.86500710656461e-05
-3.72625,3.5297652686821e-05
-3.725,-1.65525118018338e-05
-3.72375,-6.94719698718565e-05
-3.7225,-0.0001155468988844
-3.72125,-0.000148034702603308
-3.72,-0.000162786533347948
-3.71875,-0.000159128902136693
-3.7175,-0.00013999953054943
-3.71625,-0.000111295136997465
-3.715,-8.05806854187899e-05
-3.71375,-5.54584952401808e-05
-3.7125,-4.19551294893651e-05
-3.71125,-4.3261411524252e-05
-3.71,-5.90840628226111e-05
-3.70875,-8.57503000110407e-05
-3.7075,-0.000117050994262001
-3.70625,-0.000145638560841394
-3.705,-0.000164668709214535
-3.70375,-0.000169329771496456
-3.7025,-0.000157931003700664
-3.70125,-0.000132303870177198
-3.7,-9.74140347454277e-05
-3.69875,-6.02723779338117e-05
-3.6975,-2.8403354209959e-05
-3.69625,-8.21672019586359e-06
-3.695,-3.62847693165266e-06
-3.69375,-1.52160973266189e-05
-3.6925,-4.00914092470079e-05
-3.69125,-7.2532161648637e-05
-3.69,-0.000105242695624539
-3.68875,-0.000130966195200134
-3.6875,-0.00014409798713142
-3.68625,-0.000141956212004642
-3.685,-0.00012543060379889
-3.68375,-9.88515557226318e-05
-3.6825,-6.91006320774238e-05
-3.68125,-4.41698469712143e-05
-3.68,-3.1498267017764e-05
-3.67875,-3.64428085302456e-05
-3.6775,-6.11954926214224e-05
-3.67625,-0.000104369758831686
-3.675,-0.000161350541084128
-3.67375,-0.000225339027055875
-3.6725,-0.0002888602572911
-3.67125,-0.000345398462655804
-3.67,-0.00039080650368842
-3.66875,-0.000424184434751305
-3.6675,-0.000448024862600252
-3.66625,-0.00046758333537155
-3.665,-0.000489620822166713
-3.66375,-0.000520812470709089
-3.6625,-0.000566176188347802
-3.66125,-0.000627852251408194
-3.66,-0.000704488820901827
-3.65875,-0.000791373356423504
-3.6575,-0.000881297950536497
-3.65625,-0.000965979566566257
-3.655,-0.00103772760371833
-3.65375,-0.00109100107891281
-3.6525,-0.00112352161116167
-3.65125,-0.00113669135839974
-3.65,-0.00113521133686001
-3.64875,-0.00112598759243224
-3.6475,-0.00111658340819287
-3.64625,-0.00111356512120872
-3.645,-0.00112109084271341
-3.64375,-0.00114003107965926
-3.6425,-0.00116780744013779
-3.64125,-0.00119899215059593
-3.64,-0.00122654059428867
-3.63875,-0.00124338122477387
-3.6375,-0.00124401278520395
-3.63625,-0.00122576420330262
-3.635,-0.00118943800414344
-3.63375,-0.00113918177681643
-3.6325,-0.00108161107743187
-3.63125,-0.00102439038792913
-3.63,-0.000974597457950262
-3.62875,-0.000937224765989537
-3.6275,-0.00091412875324714
-3.62625,-0.000903648304748633
-3.625,-0.000900985339709097
-3.62375,-0.000899276825511806
-3.6225,-0.000891126668483024
-3.62125,-0.000870263622419357
-3.62,-0.000832970102434105
-3.61875,-0.000778971300743191
-3.6175,-0.00071157640339896
-3.61625,-0.000637028734060194
-3.615,-0.000563215343389171
-3.61375,-0.000498035624035434
-3.6125,-0.000447787050526872
-3.61125,-0.000415902503551296
-3.61,-0.000402296826040397
-3.60875,-0.00040346426911389
-3.6075,-0.000413313919426311
-3.60625,-0.000424561139398713
-3.605,-0.000430365356948974
-3.60375,-0.000425857756243531
-3.6025,-0.00040922928353971
-3.60125,-0.000382132298908999
-3.6,-0.000349292978755189
-3.59875,-0.000317421592091059
-3.5975,-0.000293678302299753
-3.59625,-0.000284041667995868
-3.595,-0.000291927593611751
-3.59375,-0.000317344715840046
-3.5925,-0.000356769432592701
-3.59125,-0.000403781227679512
-3.59,-0.000450328916164503
-3.58875,-0.000488351693062548
-3.5875,-0.000511406339948696
-3.58625,-0.000515956953822121
-3.585,-0.000502045246117306
-3.58375,-0.00047318054555852
-3.5825,-0.000435469641907493
-3.58125,-0.000396194220038102
-3.58,-0.000362164796096047
-3.57875,-0.000338208215674396
-3.5775,-0.000326101707739661
-3.57625,-0.000324176799349151
-3.575,-0.000327686395132617
-3.57375,-0.00032986227317671
-3.5725,-0.000323428873606406
-3.57125,-0.000302240173160285
-3.57,-0.000262689132834664
-3.56875,-0.000204584557787742
-3.5675,-0.000131290429765021
-3.56625,-4.90850621848242e-05
-3.565,3.41110579899647e-05
-3.56375,0.000110342595514653
-3.5625,0.000173208335435537
-3.56125,0.00021910185732692
-3.56,0.000247849301426885
-3.55875,0.000262603315912977
-3.5575,0.000269005348247348
-3.55625,0.000273797838288638
-3.555,0.000283196691383086
-3.55375,0.000301380800553415
-3.5525,0.000329426210837163
-3.55125,0.000364928234878699
-3.55,0.000402412066289538
-3.54875,0.000434443180991214
-3.5475,0.000453177844053462
-3.54625,0.000452005257061866
-3.545,0.000426934466022155
-3.54375,0.000377442508578642
-3.5425,0.000306603130490085
-3.54125,0.000220456425087212
-3.54,0.000126747842060061
-3.53875,3.33117230182225e-05
-3.5375,-5.35511559983615e-05
-3.53625,-0.000130357048738794
-3.535,-0.000197102601941384
-3.53375,-0.000257150292685099
-3.5325,-0.000316358369810755
-3.53125,-0.000381662442269077
-3.53,-0.000459434993867708
-3.52875,-0.000553977213454219
-3.5275,-0.000666453976996337
-3.52625,-0.000794493715962167
-3.525,-0.000932546837754627
-3.52375,-0.00107293319028487
-3.5225,-0.00120734896263443
-3.52125,-0.00132850296575138
-3.52,-0.00143153275562127
-3.51875,-0.00151489525778275
-3.5175,-0.00158052647607045
-3.51625,-0.00163322660344959
-3.515,-0.00167941683596407
-3.51375,-0.00172555976124743
-3.5125,-0.00177659306684566
-3.51125,-0.00183470638632689
-3.51,-0.00189871965263332
-3.50875,-0.00196420789492387
-3.5075,-0.00202436116566828
-3.50625,-0.00207139641051402
-3.505,-0.00209821043750771
-3.50375,-0.00209991877439415
-3.5025,-0.00207495248424974
-3.50125,-0.00202546491730745
-3.5,-0.00195694153985907
-3.49875,-0.00187709665675426
-3.4975,-0.00179431339171482
-3.49625,-0.00171597396592681
-3.495,-0.00164702922098168
-3.49375,-0.00158909726827962
-3.4925,-0.0015402810888689
-3.49125,-0.00149575318707762
-3.49,-0.0014489840796242
-3.48875,-0.00139334203657718
-3.4875,-0.00132371548726182
-3.48625,-0.00123781114133076
-3.485,-0.0011368410393606
-3.48375,-0.00102543340454309
-3.4825,-0.000910783840507392
-3.48125,-0.000801249889260275
-3.48,-0.000704710964131129
-3.47875,-0.000627044144735173
-3.4775,-0.000571027452790409
-3.47625,-0.00053590030134378
-3.475,-0.000517685720136362
-3.47375,-0.000510212657314631
-3.4725,-0.000506612895381064
-3.47125,-0.000500966058814541
-3.47,-0.000489745004804673
-3.46875,-0.000472750350271642
-3.4675,-0.000453313426512464
-3.46625,-0.000437707843518929
-3.465,-0.000433907606209201
-3.46375,-0.000449980784404649
-3.4625,-0.000492464354900309
-3.46125,-0.000565046026491285
-3.46,-0.00066781631352207
-3.45875,-0.000797253041042281
-3.4575,-0.000946949499885486
-3.45625,-0.00110892309415956
-3.455,-0.0012752094264517
-3.45375,-0.00143939720634387
-3.4525,-0.00159777619802247
-3.45125,-0.00174983572492793
-3.45,-0.00189798423462796
-3.44875,-0.00204655372353385
-3.4475,-0.00220032723355567
-3.44625,-0.00236291351860164
-3.445,-0.00253529768832377
-3.44375,-0.00271485999165138
-3.4425,-0.00289508413414251
-3.44125,-0.00306604874139848
-3.44,-0.00321562196675136
-3.43875,-0.00333112751255987
-3.4375,-0.00340117316401727
-3.43625,-0.00341731651730049
-3.435,-0.00337526429774404
-3.43375,-0.00327539138885806
-3.4325,-0.0031225332641633
-3.43125,-0.0029251569394662
-3.43,-0.00269406378726996
-3.42875,-0.00244078801762651
-3.4275,-0.00217593743450648
-3.42625,-0.00190782203460712
-3.425,-0.00164167330330732
-3.42375,-0.00137956884686855
-3.4225,-0.0011210037140349
-3.42125,-0.000863972352056154
-3.42,-0.000606356292556038
-3.41875,-0.000347293090507295
-3.4175,-8.81495033506855e-05
-3.41625,0.000167142243391145
-3.415,0.000412398424177133
-3.41375,0.000640028878413788
-3.4125,0.000842266001390016
-3.41125,0.00101257083633714
-3.41,0.00114689800461503
-3.40875,0.00124448443391185
-3.4075,0.00130797737119067
-3.40625,0.00134290992637721
-3.405,0.00135663714673777
-3.40375,0.00135690637304404
-3.4025,0.00135034805488345
-3.40125,0.00134126764826627
-3.4,0.00133103984627507
-3.39875,0.00131818257393898
-3.3975,0.00129901602034799
-3.39625,0.00126876757671192
-3.395,0.00122294780940645
-3.39375,0.00115871434690454
-3.3925,0.00107587111287265
-3.39125,0.000977249819973065
-3.39,0.000868420984459371
-3.38875,0.000756820431970697
-3.3875,0.000650439089157494
-3.38625,0.000556318166071462
-3.385,0.000479213159559203
-3.38375,0.000420780780153071
-3.3825,0.00037945083120136
-3.38125,0.000350934902267833
-3.38,0.000329239177983009
-3.37875,0.000308023172394593
-3.3775,0.00028205591145259
-3.37625,0.000248418538537222
-3.375,0.000207144781901756
-3.37375,0.000161179168264264
-3.3725,0.000115705347985606
-3.37125,7.6975809120299e-05
-3.37,5.08496234566649e-05
-3.36875,4.13700705999977e-05
-3.3675,4.97630590440295e-05
-3.36625,7.40932984340255e-05
-3.365,0.000109586294120891
-3.36375,0.000149497457087355
-3.3625,0.000186383714045972
-3.36125,0.000213568329161417
-3.36,0.000226471930457384
-3.35875,0.000223464619485137
-3.3575,0.000206048486757459
-3.35625,0.000178377718882335
-3.355,0.000146231258416409
-3.35375,0.000115614662358611
-3.3525,9.12806668728007e-05
-3.35125,7.55529030582631e-05
-3.35,6.77575051437535e-05
-3.34875,6.43418995567525e-05
-3.3475,5.95859235483222e-05
-3.34625,4.67644036627325e-05
-3.345,1.9582700797205e-05
-3.34375,-2.6403356178268e-05
-3.3425,-9.27411253453422e-05
-3.34125,-0.000177665117393642
-3.34,-0.000276366536899771
-3.33875,-0.000381864738183831
-3.3375,-0.000486332840379588
-3.33625,-0.000582630310712845
-3.335,-0.000665671190793734
-3.33375,-0.000733269771974823
-3.3325,-0.000786302994596824
-3.33125,-0.000828238669401342
-3.33,-0.000864159086550024
-3.32875,-0.000899434229985367
-3.3275,-0.000938292790483241
-3.32625,-0.000982645472811886
-3.325,-0.00103147294409879
-3.32375,-0.00108089959978
-3.3225,-0.00112489886303196
-3.32125,-0.0011564960575774
-3.32,-0.00116926050192398
-3.31875,-0.00115875327609693
-3.3175,-0.00112354636202149
-3.31625,-0.00106557177509401
-3.315,-0.000989789442772842
-3.31375,-0.00090329196997616
-3.3125,-0.000813993343294179
-3.31125,-0.000729116704007103
-3.31,-0.000653815855112358
-3.30875,-0.000590281283095991
-3.3075,-0.000537523686316927
-3.30625,-0.000491829827846775
-3.305,-0.000447779762446671
-3.30375,-0.000399652029744946
-3.3025,-0.000342925318409254
-3.30125,-0.000275485028443245
-3.3,-0.000198222026518592
-3.29875,-0.000114938377168366
-3.2975,-3.1650692404135e-05
-3.29625,4.45701972220217e-05
-3.295,0.000107042647782499
-3.29375,0.00015090555669213
-3.2925,0.000174172439255909
-3.29125,0.000178147607805069
-3.29,0.000167149594382076
-3.28875,0.000147628268893004
-3.2875,0.000126826506425315
-3.28625,0.000111237072587518
-3.285,0.000105230697562038
-3.28375,0.000110218222102637
-3.2825,0.00012451027300231
-3.28125,0.000143825258413883
-3.28,0.00016231291212542
-3.27875,0.000173932777890994
-3.2775,0.000173931125878575
-3.27625,0.00016005458277306
-3.275,0.000133184455899282
-3.27375,9.72698879603134e-05
-3.2725,5.86142698966403e-05
-3.27125,2.46500030634943e-05
-3.27,2.41431220918783e-06
-3.26875,-2.93324764771511e-06
-3.2675,1.08387313794238e-05
-3.26625,4.26594802582124e-05
-3.265,8.84713942077793e-05
-3.26375,0.000142117722229226
-3.2625,0.000196654448796905
-3.26125,0.000245866890543081
-3.26,0.000285650200204403
-3.25875,0.000314897224108299
-3.2575,0.000335696448099061
-3.25625,0.000352843093525224
-3.255,0.000372775476896321
-3.25375,0.00040211569910812
-3.2525,0.00044611561131808
-3.25125,0.000507408988977397
-3.25,0.00058538815485155
-3.24875,0.000676292230608678
-3.2475,0.000773916682309656
-3.24625,0.000870803636603014
-3.245,0.000959726506609692
-3.24375,0.00103516493633025
-3.2425,0.00109439749922818
-3.24125,0.001137948343094
-3.24,0.00116933204029723
-3.23875,0.00119418251861832
-3.2375,0.00121891751910649
-3.23625,0.0012491927518928
-3.235,0.00128852788077849
-3.23375,0.00133747331790806
-3.2325,0.00139348444253246
-3.23125,0.0014514538380757
-3.23,0.00150476696680935
-3.22875,0.00154671811304399
-3.2275,0.00157202541034139
-3.22625,0.00157807563381514
-3.225,0.00156557435390576
-3.22375,0.00153847335948326
-3.2225,0.00150322705273816
-3.22125,0.00146751519600589
-3.22,0.00143865432402665
-3.21875,0.00142205396815507
-3.2175,0.00142012256373259
-3.21625,0.00143187501931555
-3.215,0.00145325541863379
-3.21375,0.00147805472804452
-3.2125,0.00149926963309137
-3.21125,0.00151067325820256
-3.21,0.00150824465714193
-3.20875,0.00149109109474963
-3.2075,0.00146166201593398
-3.20625,0.00142525704441619
-3.205,0.00138894053813451
-3.20375,0.00136004491105225
-3.2025,0.0013445713818492
-3.20125,0.00134589970076321
-3.2,0.00136413385383501
-3.19875,0.00139617432827439
-3.1975,0.00143642538184339
-3.19625,0.00147799350295821
-3.195,0.00151418612872359
-3.19375,0.0015400004281948
-3.1925,0.00155322230101199
-3.19125,0.00155486565203278
-3.19,0.00154889258531825
-3.18875,0.00154129969842912
-3.1875,0.00153872646730051
-3.18625,0.00154685230874785
-3.185,0.00156898132051301
-3.18375,0.00160519560821281
-3.1825,0.00165224546468149
-3.18125,0.00170412250836223
-3.18,0.00175317582231822
-3.17875,0.00179160053171864
-3.1775,0.00181302622305572
-3.17625,0.00181382410290045
-3.175,0.00179380189675359
-3.17375,0.00175615800682082
-3.1725,0.00170674885050396
-3.17125,0.00165280822948242
-3.17,0.00160134278692297
-3.16875,0.0015575653716951
-3.1675,0.00152378053564543
-3.16625,0.00149898144137247
-3.165,0.0014791725109787
-3.16375,0.00145829409816265
-3.1625,0.00142959148709709
-3.16125,0.00138719540098901
-3.16,0.00132755543809236
-3.15875,0.00125035325030648
-3.1575,0.00115868876943396
-3.15625,0.00105854072107465
-3.155,0.000957617984386731
-3.15375,0.000863793739430063
-3.1525,0.000783445867755252
-3.15125,0.000720129550235053
-3.15,0.000673916360017659
-3.14875,0.000641490007099555
-3.1475,0.000616903406788112
-3.14625,0.000592848055697311
-3.145,0.000562235595978514
-3.14375,0.00051976748385226
-3.1425,0.000463099009619274
-3.14125,0.000393319145390174
-3.14,0.00031468454990698
-3.13875,0.000233694716196147
-3.1375,0.000157668903036083
-3.13625,9.30983808675831e-05
-3.135,4.41800060607223e-05
-3.13375,1.19177734088245e-05
-3.1325,-6.0331569267864e-06
-3.13125,-1.48267192369464e-05
-3.13,-2.13255855849866e-05
-3.12875,-3.26112558300377e-05
-3.1275,-5.43835198967185e-05
-3.12625,-8.96400703957033e-05
-3.125,-0.000137976534169937
-3.12375,-0.000195642265123593
-3.1225,-0.000256301544175157
-3.12125,-0.00031235921258219
-3.12,-0.000356617026055589
-3.11875,-0.000383885062386585
-3.1175,-0.000392123156495734
-3.11625,-0.000382849153768657
-3.115,-0.000360799880952059
-3.11375,-0.000332969284373763
-3.1125,-0.00030718370936856
-3.11125,-0.000290454395645128
-3.11,-0.000287477305648965
-3.10875,-0.000299663724020293
-3.1075,-0.00032491293149578
-3.10625,-0.000358125012218886
-3.105,-0.000392334029018143
-3.10375,-0.000420266235834837
-3.1025,-0.000435997418691169
-3.10125,-0.000436282652321723
-3.1,-0.000421224849960955
-3.09875,-0.000394191528065479
-3.0975,-0.000361071449577644
-3.09625,-0.000329015408458268
-3.095,-0.000304859892058911
-3.09375,-0.000293561444606257
-3.0925,-0.000297042034321159
-3.09125,-0.000313729481814637
-3.09,-0.000338856903629916
-3.08875,-0.000365433450502828
-3.0875,-0.000385722337938451
-3.08625,-0.000392945050406143
-3.085,-0.000382793565117753
-3.08375,-0.000354352583058378
-3.0825,-0.00031025305306108
-3.08125,-0.000256106277031882
-3.08,-0.000199358427036509
-3.07875,-0.000147742367708809
-3.0775,-0.000107614314826741
-3.07625,-8.2576381871191e-05
-3.075,-7.27330935307762e-05
-3.07375,-7.47200166535174e-05
-3.0725,-8.24533228619105e-05
-3.07125,-8.84575526569824e-05
-3.07,-8.55356707478816e-05
-3.06875,-6.84019157338593e-05
-3.0675,-3.48471974031056e-05
-3.06625,1.38314251598126e-05
-3.065,7.31561034829961e-05
-3.06375,0.000136427532397397
-3.0625,0.000196158087519855
-3.06125,0.000245732812753968
-3.06,0.000280918490548761
-3.05875,0.000300828560475106
-3.0575,0.00030812751320881
-3.05625,0.000308475046609495
-3.055,0.000309331358652787
-3.05375,0.000318325700309457
-3.0525,0.000341527274549531
-3.05125,0.000382061976752996
-3.05,0.000439422620218202
-3.04875,0.000509568832597892
-3.0475,0.0005857215145844
-3.04625,0.000659698439008696
-3.045,0.000723580078507756
-3.04375,0.000771363988112793
-3.0425,0.000800194527966438
-3.04125,0.000810874984579133
-3.04,0.000807594301292347
-3.03875,0.000796956859983807
-3.0375,0.000786483707732186
-3.03625,0.00078287288635154
-3.035,0.000790444425706501
-3.03375,0.000810176124746128
-3.0325,0.000839517171313191
-3.03125,0.000872937042865092
-3.03,0.000903072831518247
-3.02875,0.000922295805954039
-3.0275,0.000924402198089953
-3.02625,0.000906017203200352
-3.025,0.000867355421423616
-3.02375,0.000812193917991685
-3.0225,0.000747106281106278
-3.02125,0.000680100709846614
-3.02,0.000618902494978996
-3.01875,0.000569269397784858
-3.0175,0.000533782072802461
-3.01625,0.000511388737527634
-3.015,0.000497728685869352
-3.01375,0.00048611376813219
-3.0125,0.000469003404696256
-3.01125,0.00043971937965489
-3.01,0.000394010190657024
-3.00875,0.000331062473082708
-3.0075,0.000253736431523411
-3.00625,0.000168023141389245
-3.005,8.18451913039624e-05
-3.00375,3.40501001345853e-06
-3.0025,-6.05744115219166e-05
-3.00125,-0.00010626530580521
-3,-0.00013345369500936
-2.99875,-0.000145460614025671
-2.9975,-0.000148358181641371
-2.99625,-0.000149633069257854
-2.995,-0.000156511192656952
-2.99375,-0.000174291511653757
-2.9925,-0.000205109341103622
-2.99125,-0.000247428199875368
-2.99,-0.000296332241028223
-2.98875,-0.000344532516344643
-2.9875,-0.000383915338400741
-2.98625,-0.000407335017914777
-2.985,-0.000410212203505124
-2.98375,-0.0003915221804023
-2.9825,-0.000353983508619693
-2.98125,-0.000303491866935537
-2.98,-0.000247939719762396
-2.97875,-0.000195604855446338
-2.9775,-0.00015340796945754
-2.97625,-0.000125458365667551
-2.975,-0.00011225464350553
-2.97375,-0.000110692351911828
-2.9725,-0.000114832162477614
-2.97125,-0.000117280049884795
-2.97,-0.000110928625709724
-2.96875,-9.06601667854788e-05
-2.9675,-5.45620857145085e-05
-2.96625,-4.37350560708503e-06
-2.965,5.48605631408402e-05
-2.96375,0.000115803745680236
-2.9625,0.000170342534480783
-2.96125,0.000211339693895333
-2.96,0.00023422823443091
-2.95875,0.000238035560773572
-2.9575,0.000225609261885077
-2.95625,0.000203040819504521
-2.955,0.00017841290606291
-2.95375,0.000160085637594146
-2.9525,0.000154881151284919
-2.95125,0.000166629372605297
-2.95,0.000195433596189621
-2.94875,0.000237755384970124
-2.9475,0.000287223407274956
-2.94625,0.000336008618741005
-2.945,0.000376544186052691
-2.94375,0.000403232548647821
-2.9425,0.000413711133152112
-2.94125,0.000409374191112483
-2.94,0.000395079231270898
-2.93875,0.000378127091962206
-2.9375,0.000366690754573754
-2.93625,0.000367996084033733
-2.935,0.000386700513893587
-2.93375,0.000423891399320838
-2.9325,0.000476896582656194
-2.93125,0.000539862713751181
-2.93,0.000604958680567607
-2.92875,0.000664015285109594
-2.9275,0.000710291864587196
-2.92625,0.00073994241027013
-2.925,0.000752811235207721
-2.92375,0.000752408106509342
-2.9225,0.000745111549269835
-2.92125,0.000738750027978994
-2.92,0.00074081589567626
-2.91875,0.000756720047275083
-2.9175,0.000788544835748545
-2.91625,0.000834580668127824
-2.915,0.000889670594984134
-2.91375,0.00094623833405063
-2.9125,0.00099582780610642
-2.91125,0.00103088856436588
-2.91,0.00104640286957167
-2.90875,0.00104094019216701
-2.9075,0.00101690947928923
-2.90625,0.000980005186352067
-2.905,0.000937971005629502
-2.90375,0.000898893848547299
-2.9025,0.000869387149820465
-2.90125,0.000853130948188895
-2.9,0.000850133579909739
-2.89875,0.00085681746280251
-2.8975,0.000866833561742344
-2.89625,0.00087244645836842
-2.895,0.000866266446898161
-2.89375,0.00084296535673465
-2.8925,0.000800540193229891
-2.89125,0.000740817855888615
-2.89,0.000669130400985259
-2.88875,0.000593253872458573
-2.8875,0.000521791096781935
-2.88625,0.000462309042114172
-2.885,0.00041968566286583
-2.88375,0.000395095007253119
-2.8825,0.00038582595327059
-2.88125,0.000385888626174389
-2.88,0.00038726061277442
-2.87875,0.00038157575314667
-2.8775,0.000361936013455091
-2.87625,0.000324409579913989
-2.875,0.000268839779261323
-2.87375,0.000198814295446718
-2.8725,0.000120846508882601
-2.87125,4.29247114730803e-05
-2.87,-2.7305900641965e-05
-2.86875,-8.43082944514514e-05
-2.8675,-0.000125900256886016
-2.86625,-0.000153698242571533
-2.865,-0.000172740860442626
-2.86375,-0.000190423009415933
-2.8625,-0.000214917688123805
-2.86125,-0.00025335779708281
-2.86,-0.000310190792565235
-2.85875,-0.000386127266311356
-2.8575,-0.000477915100648774
-2.85625,-0.00057894038935648
-2.855,-0.000680525007512195
-2.85375,-0.000773699419212314
-2.8525,-0.000851081232127144
-2.85125,-0.000908383065345323
-2.85,-0.000945179815559872
-2.84875,-0.000964831096418078
-2.8475,-0.000973654561115331
-2.84625,-0.000979511085990614
-2.845,-0.000990031686197469
-2.84375,-0.00101085739542817
-2.8425,-0.00104433448644519
-2.84125,-0.0010889761428173
-2.84,-0.00113976450530766
-2.83875,-0.00118920176835157
-2.8375,-0.00122892843098852
-2.83625,-0.00125159396486258
-2.835,-0.00125252027863693
-2.83375,-0.00123072577464633
-2.8325,-0.00118911295986904
-2.83125,-0.00113386444838984
-2.83,-0.00107319389973
-2.82875,-0.00101564889822466
-2.8275,-0.000968287299435904
-2.82625,-0.000935166985449947
-2.825,-0.000916527206629383
-2.82375,-0.0009088143671539
-2.8225,-0.000905501982411461
-2.82125,-0.000898549917646393
-2.82,-0.000880239610699826
-2.81875,-0.000844967065324657
-2.8175,-0.00079052645468928
-2.81625,-0.000718592218641583
-2.815,-0.000634371620897273
-2.81375,-0.000545551264432418
-2.8125,-0.000460713632702887
-2.81125,-0.000387501017496755
-2.81,-0.000330946678003758
-2.80875,-0.00029239925780079
-2.8075,-0.000269274319916585
-2.80625,-0.000255635658426897
-2.805,-0.000243478597572077
-2.80375,-0.000224495790478426
-2.8025,-0.000191954688414811
-2.80125,-0.000142205259774028
-2.8,-7.54426027241403e-05
-2.79875,4.38271228714363e-06
-2.7975,9.0411207000671e-05
-2.79625,0.000174314973808857
-2.795,0.000248096616522661
-2.79375,0.000305866824922775
-2.7925,0.000345150727991452
-2.79125,0.00036740969082605
-2.79,0.000377707816436398
-2.78875,0.000383620042674873
-2.7875,0.000393569764720247
-2.78625,0.000414917543176485
-2.785,0.000452267412990926
-2.78375,0.000506427814213372
-2.7825,0.000574226204773511
-2.78125,0.000649132381554819
-2.78,0.000722541747055005
-2.77875,0.000785516734640376
-2.7775,0.000830657436571208
-2.77625,0.0008536529226718
-2.775,0.000854128700545475
-2.77375,0.000835635352945828
-2.7725,0.000804829026193213
-2.77125,0.000769999498821763
-2.77,0.00073921207512207
-2.76875,0.00071848848655006
-2.7675,0.000710501611734788
-2.76625,0.000714078813763236
-2.765,0.000724539330309099
-2.76375,0.000734739283754081
-2.7625,0.000736647767491296
-2.76125,0.00072317688576965
-2.76,0.000689845190876743
-2.75875,0.000635847315679301
-2.7575,0.000564294629313428
-2.75625,0.000481622737453263
-2.755,0.000396293488812417
-2.75375,0.000317014319570243
-2.7525,0.000250851312990723
-2.75125,0.000201721013518883
-2.75,0.000169635816403953
-2.74875,0.000150806607751092
-2.7475,0.00013850308287942
-2.74625,0.000124505496626385
-2.745,0.00010091057649604
-2.74375,6.1911231511227e-05
-2.7425,5.10158062926323e-06
-2.74125,-6.80026566377371e-05
-2.74,-0.000152295839108859
-2.73875,-0.000240167457907068
-2.7375,-0.00032315089958472
-2.73625,-0.000393811814800896
-2.735,-0.000447409490055455
-2.73375,-0.000482900391912978
-2.7325,-0.000503095219791111
-2.73125,-0.00051402243103711
-2.73,-0.000523649236265332
-2.72875,-0.000540160476933786
-2.7275,-0.000570121338946049
-2.72625,-0.000616967059172631
-2.725,-0.000680197330451076
-2.72375,-0.000755425369971783
-2.7225,-0.000835228605219398
-2.72125,-0.000910643022359692
-2.72,-0.000973032362328423
-2.71875,-0.00101590755989249
-2.7175,-0.00103622756112699
-2.71625,-0.00103489444256535
-2.715,-0.00101642147192463
-2.71375,-0.000987899612883802
-2.7125,-0.000957435227561376
-2.71125,-0.000932331915596135
-2.71,-0.000917433981102366
-2.70875,-0.000914057262432204
-2.7075,-0.000919742153340155
-2.70625,-0.000928832505328818
-2.705,-0.000933751406536265
-2.70375,-0.000926750569988839
-2.7025,-0.000901760543280478
-2.70125,-0.000855864566548625
-2.7,-0.000790029194285786
-2.69875,-0.000708991329509339
-2.6975,-0.000620399330544255
-2.69625,-0.000533369693393723
-2.695,-0.000456690212819573
-2.69375,-0.000397042412904932
-2.6925,-0.000357685737382772
-2.69125,-0.000337912499449773
-2.69,-0.000333345345428397
-2.68875,-0.000336985844137404
-2.6875,-0.000340833006290181
-2.68625,-0.000337755762191611
-2.685,-0.00032315709383478
-2.68375,-0.000295996436985598
-2.6825,-0.000258974835956608
-2.68125,-0.000217930636797211
-2.68,-0.000180595603613531
-2.67875,-0.000154911953358299
-2.6775,-0.000147233638321615
-2.67625,-0.000160848821620536
-2.675,-0.00019519399761883
-2.67375,-0.000245904768278174
-2.6725,-0.000305649086440451
-2.67125,-0.000365587040482273
-2.67,-0.000417192851315218
-2.66875,-0.000454022216216748
-2.6675,-0.000472967049385113
-2.66625,-0.000474720651594656
-2.665,-0.000463436713708811
-2.66375,-0.000445707553573294
-2.6625,-0.000429032312337384
-2.66125,-0.000420043534088505
-2.66,-0.000422900619543343
-2.65875,-0.000438264305147557
-2.6575,-0.000463077518263109
-2.65625,-0.000491152101371189
-2.655,-0.000514434191910482
-2.65375,-0.000524731964615418
-2.6525,-0.000515542469137767
-2.65125,-0.000483508706970241
-2.65,-0.000429145099322771
-2.64875,-0.000356733140947083
-2.6475,-0.000273485185488098
-2.64625,-0.000188136442002025
-2.645,-0.0001091916729591
-2.64375,-4.31906222178868e-05
-2.6425,6.57654263195325e-06
-2.64125,4.0603649153812e-05
-2.64,6.28850441035387e-05
-2.63875,7.99055277908905e-05
-2.6375,9.9080886380542e-05
-2.63625,0.000126955383005181
-2.635,0.000167603131506206
-2.63375,0.000221650118876714
-2.6325,0.000286102014452716
-2.63125,0.000354929893797754
-2.63,0.000420271565097406
-2.62875,0.000474058292173117
-2.6275,0.000509754676692353
-2.62625,0.00052378664584953
-2.625,0.000516297472986101
-2.62375,0.000491091861665357
-2.6225,0.000454821344092645
-2.62125,0.00041556246389447
-2.62,0.000381045126227165
-2.61875,0.000356938136059383
-2.6175,0.00034563942976169
-2.61625,0.000345841131403804
-2.615,0.000352883745832634
-2.61375,0.000359774039054602
-2.6125,0.000358697655771398
-2.61125,0.000342764112843396
-2.61,0.000307586658129721
-2.60875,0.000252294674674869
-2.6075,0.00017976030383182
-2.60625,9.6040415349388e-05
-2.605,9.15869695496368e-06
-2.60375,-7.25595170041183e-05
-2.6025,-0.00014224530008732
-2.60125,-0.000195885028103748
-2.6,-0.00023301630874332
-2.59875,-0.00025663213575477
-2.5975,-0.000272390434617567
-2.59625,-0.000287283289247973
-2.595,-0.000307983828774646
-2.59375,-0.000339222273482924
-2.5925,-0.00038260712556708
-2.59125,-0.000436178551249341
-2.59,-0.000494754729101225
-2.58875,-0.000550977596407861
-2.5875,-0.000596879178307701
-2.58625,-0.00062566136777111
-2.585,-0.000633247560740467
-2.58375,-0.00061920286953026
-2.5825,-0.000586853529401286
-2.58125,-0.00054266398052919
-2.58,-0.000495017734949629
-2.57875,-0.000452590577409054
-2.5775,-0.000422620834469668
-2.57625,-0.000409489220649494
-2.575,-0.000413955853180358
-2.57375,-0.000433187174846649
-2.5725,-0.000461518761592381
-2.57125,-0.000491807208229851
-2.57,-0.000517123185517472
-2.56875,-0.000532392075163894
-2.5675,-0.000535549123077949
-2.56625,-0.000527949994858272
-2.565,-0.00051402667061729
-2.56375,-0.000500311457091095
-2.5625,-0.000493991024079418
-2.56125,-0.000501243558859254
-2.56,-0.000525745448957554
-2.55875,-0.000567737747893437
-2.5575,-0.000623860098755644
-2.55625,-0.000687744208627313
-2.555,-0.000751240937987843
-2.55375,-0.000806073786390379
-2.5525,-0.000845574844048769
-2.55125,-0.000866061083567467
-2.55,-0.000867511160481029
-2.54875,-0.000853452899079601
-2.5475,-0.000830157334900951
-2.54625,-0.000805293544631626
-2.545,-0.000786261676440345
-2.54375,-0.000778553262002576
-2.5425,-0.000784551093753948
-2.54125,-0.000803052808910055
-2.54,-0.000829578530780947
-2.53875,-0.000857371226329677
-2.5375,-0.00087891561541582
-2.53625,-0.00088767550463317
-2.535,-0.000879615963894871
-2.53375,-0.000854112275688358
-2.5325,-0.000814075410413675
-2.53125,-0.000765347412277404
-2.53,-0.000715508166881993
-2.52875,-0.000672280303192043
-2.5275,-0.000641838239899383
-2.52625,-0.000627437185467605
-2.525,-0.000628711889008458
-2.52375,-0.000641776667103105
-2.5225,-0.000660069147441019
-2.52125,-0.000675786243543673
-2.52,-0.000681656944124989
-2.51875,-0.000672646855690826
-2.5175,-0.000647149188692972
-2.51625,-0.000607394653427623
-2.515,-0.000559066971937735
-2.51375,-0.00051024779134859
-2.5125,-0.000469858801391121
-2.51125,-0.000445867022326075
-2.51,-0.000443658749069713
-2.50875,-0.000464992373875294
-2.5075,-0.000507752596099118
-2.50625,-0.000566505288119771
-2.505,-0.000633727338880892
-2.50375,-0.000701497693109944
-2.5025,-0.000763291489897484
-2.50125,-0.000815417079274692
-2.5,-0.000857741312893684
-2.49875,-0.000893604625762458
-2.4975,-0.000929017084216627
-2.49625,-0.000971288976233022
-2.495,-0.00102732064325163
-2.49375,-0.00110191713160278
-2.4925,-0.00119655975581744
-2.49125,-0.00130893322750046
-2.49,-0.00143327400306899
-2.48875,-0.00156144594282815
-2.4875,-0.00168456025730077
-2.48625,-0.00179482396465843
-2.485,-0.0018871614560105
-2.48375,-0.0019601890575821
-2.4825,-0.00201635890410091
-2.48125,-0.0020613235222633
-2.48,-0.00210266791102167
-2.47875,-0.00214820664929198
-2.4775,-0.00220417058700884
-2.47625,-0.00227372317112828
-2.475,-0.00235617801990366
-2.47375,-0.00244706236915155
-2.4725,-0.00253897241379345
-2.47125,-0.00262306391620968
-2.47,-0.00269090902717143
-2.46875,-0.00273629442227613
-2.4675,-0.00275649481078914
-2.46625,-0.00275273888750603
-2.465,-0.00272984816117292
-2.46375,-0.00269517519900285
-2.4625,-0.0026570187059084
-2.46125,-0.00262279667461974
-2.46,-0.00259740042166814
-2.45875,-0.0025821513061023
-2.4575,-0.00257458438945274
-2.45625,-0.0025690541260434
-2.455,-0.00255803035018904
-2.45375,-0.00253386093247385
-2.4525,-0.00249062674161454
-2.45125,-0.00242561062145465
-2.45,-0.00234001554859832
-2.44875,-0.00223883468859501
-2.4475,-0.00212997120059245
-2.44625,-0.00202276835871123
-2.445,-0.00192618457143256
-2.44375,-0.00184699406587958
-2.4425,-0.00178846059854418
-2.44125,-0.00174979137745325
-2.44,-0.00172643851201928
-2.43875,-0.00171115360228293
-2.4375,-0.00169561246952061
-2.43625,-0.00167229249381454
-2.435,-0.00163614052062326
-2.43375,-0.00158560131576738
-2.4325,-0.00152281424236625
-2.43125,-0.00145302449695169
-2.43,-0.00138335412734088
-2.42875,-0.00132113181416166
-2.4275,-0.00127210931808752
-2.42625,-0.00123900772858163
-2.425,-0.00122076603149414
-2.42375,-0.00121263541575937
-2.4225,-0.00120706385671651
-2.42125,-0.00119521305198709
-2.42,-0.00116883499808694
-2.41875,-0.001122076492823
-2.4175,-0.00105274105760134
-2.41625,-0.000962728301197518
-2.415,-0.000857638841353145
-2.41375,-0.000745677375520749
-2.4125,-0.000636033360944265
-2.41125,-0.000537019697918703
-2.41,-0.000454390588030706
-2.40875,-0.000390260322374684
-2.4075,-0.000342849786494323
-2.40625,-0.000307059130247535
-2.405,-0.000275736602098488
-2.40375,-0.000241419798021396
-2.4025,-0.000198175222263656
-2.40125,-0.000143060111199586
-2.4,-7.6844159183054e-05
-2.39875,-3.89402085684695e-06
-2.3975,6.86827682581475e-05
-2.39625,0.000132474074793237
-2.395,0.000179545289593445
-2.39375,0.000204189723345409
-2.3925,0.000204205715861648
-2.39125,0.000181397470340552
-2.39,0.000141231797316006
-2.38875,9.17422872051069e-05
-2.3875,4.18651349760922e-05
-2.38625,-4.67409064818284e-07
-2.385,-3.00043909849964e-05
-2.38375,-4.51924899376132e-05
-2.3825,-4.83451857799292e-05
-2.38125,-4.50185441200999e-05
-2.38,-4.2743824552636e-05
-2.37875,-4.93192096296617e-05
-2.3775,-7.09908461236967e-05
-2.37625,-0.000110967205351683
-2.375,-0.000168638818719878
-2.37375,-0.000239645420718233
-2.3725,-0.000316733206918313
-2.37125,-0.000391242973142576
-2.37,-0.000454957391955838
-2.36875,-0.000501880394856219
-2.3675,-0.000529484644167805
-2.36625,-0.000539150475523896
-2.365,-0.000535782185132008
-2.36375,-0.00052672935086277
-2.3625,-0.000520189616298258
-2.36125,-0.000523373276241061
-2.36,-0.000540851513357398
-2.35875,-0.000573509605674027
-2.3575,-0.000618330884269149
-2.35625,-0.000669009964515599
-2.355,-0.000717266150945114
-2.35375,-0.000754631708552673
-2.3525,-0.000774334555285761
-2.35125,-0.000772790890202887
-2.35,-0.000750340106217931
-2.34875,-0.000711125015610166
-2.3475,-0.000662217945653752
-2.34625,-0.000612158682750141
-2.345,-0.000569145274025455
-2.34375,-0.000539261506106481
-2.3425,-0.000525185381046965
-2.34125,-0.000525679016147541
-2.34,-0.000535921576889007
-2.33875,-0.000548587783044991
-2.3375,-0.00055548560082611
-2.33625,-0.000549430124223402
-2.335,-0.000525888450665574
-2.33375,-0.000483969458967082
-2.3325,-0.000426574633758983
-2.33125,-0.000359763321350085
-2.33,-0.000291481601677782
-2.32875,-0.000229856477326268
-2.3275,-0.000181385247472129
-2.32625,-0.000149463073437218
-2.325,-0.000133618722449239
-2.32375,-0.000129598899813851
-2.3225,-0.000130244377885848
-2.32125,-0.000127000358394973
-2.32,-0.000111789060353848
-2.31875,-7.88132349068512e-05
-2.3175,-2.5819915546205e-05
-2.31625,4.54567580528953e-05
-2.315,0.00012968706917609
-2.31375,0.000219039166377513
-2.3125,0.000304792048986929
-2.31125,0.000379182531319415
-2.31,0.000437061888057089
-2.30875,0.000476942696569099
-2.3075,0.000501214614638035
-2.30625,0.000515534894783763
-2.305,0.000527525981287563
-2.30375,0.00054500757577408
-2.3025,0.000574143005022597
-2.30125,0.000617979631492935
-2.3,0.000675743582674193
-2.29875,0.000742979738936397
-2.2975,0.000812434432933048
-2.29625,0.000875516291662663
-2.295,0.000924096866054572
-2.29375,0.000952269610724951
-2.2925,0.000957624366878553
-2.29125,0.000941737565689423
-2.29,0.000909817077352791
-2.28875,0.000869600231406583
-2.2875,0.000829692917652293
-2.28625,0.000797674589562086
-2.285,0.000778436737893183
-2.28375,0.0007731832957735
-2.2825,0.000779278008025508
-2.28125,0.000790885608703511
-2.28,0.000800257465244509
-2.27875,0.000799457856884963
-2.2775,0.000782195882013895
-2.27625,0.000745314475345406
-2.275,0.000689563690120623
-2.27375,0.000619517793780359
-2.2725,0.000542694871954562
-2.27125,0.000468040037762502
-2.27,0.000404048467300949
-2.26875,0.000356961989374393
-2.2675,0.000329508581814136
-2.26625,0.000320462108751253
-2.265,0.000325032442768322
-2.26375,0.000335952155167882
-2.2625,0.000345077463076485
-2.26125,0.000345218097191937
-2.26,0.000331771561947154
-2.25875,0.000303743056148762
-2.2575,0.000263932651169713
-2.25625,0.000218298908152439
-2.255,0.000174633994916156
-2.25375,0.00014078125632379
-2.2525,0.000122779736222316
-2.25125,0.000123417889878052
-2.25,0.00014155494568226
-2.24875,0.000172296632169294
-2.2475,0.000207918956617953
-2.24625,0.00023937239014532
-2.245,0.000258123801111294
-2.24375,0.000257949003646463
-2.2425,0.000236228766323983
-2.24125,0.000194447404022412
-2.24,0.000137833957728047
-2.23875,7.42467825894155e-05
-2.2375,1.24935194251512e-05
-2.23625,-3.95836079217473e-05
-2.235,-7.67863713293562e-05
-2.23375,-9.75745427378545e-05
-2.2325,-0.000104231548528578
-2.23125,-0.000102235756821167
-2.23,-9.8987927162712e-05
-2.22875,-0.000102100676430823
-2.2275,-0.000117586064141716
-2.22625,-0.000148388392747937
-2.225,-0.000193632073697956
-2.22375,-0.000248722512787473
-2.2225,-0.000306239713083029
-2.22125,-0.00035746158649267
-2.22,-0.000394238376685936
-2.21875,-0.000410783537166444
-2.2175,-0.000404913669051316
-2.21625,-0.000378463438580183
-2.215,-0.000336866942557037
-2.21375,-0.000288039077452324
-2.2125,-0.000240740124256481
-2.21125,-0.00020271247040355
-2.21,-0.000179017329452756
-2.20875,-0.000170990651360254
-2.2075,-0.000176036055222259
-2.20625,-0.000188246395772299
-2.205,-0.000199720586618772
-2.20375,-0.000202346268783962
-2.2025,-0.000189665068811164
-2.20125,-0.000158338750144216
-2.2,-0.000108856841560682
-2.19875,-4.53961647819281e-05
-2.1975,2.50653233047533e-05
-2.19625,9.42152839790329e-05
-2.195,0.000154210919263195
-2.19375,0.000199430442624444
-2.1925,0.000227725364620039
-2.19125,0.000240877889657586
-2.19,0.000244209698603828
-2.18875,0.000245446647958248
-2.1875,0.000253033949192286
-2.18625,0.000274235706875445
-2.185,0.000313491551027097
-2.18375,0.000371453252673885
-2.1825,0.000444873940537922
-2.18125,0.000527286895707815
-2.18,0.000610319883250279
-2.17875,0.000685437666099613
-2.1775,0.000745773669114848
-2.17625,0.00078760187458104
-2.175,0.000811083065591961
-2.17375,0.000820156013906492
-2.1725,0.000821640744042948
-2.17125,0.000823718796216165
-2.17,0.000834068461734472
-2.16875,0.000858089104837425
-2.1675,0.000897681019754689
-2.16625,0.000950852668878768
-2.165,0.00101216110301202
-2.16375,0.00107384901521281
-2.1625,0.00112749100374081
-2.16125,0.00116585532784567
-2.16,0.00118455046902922
-2.15875,0.00118303812389662
-2.1575,0.00116479855216695
-2.15625,0.00113666114061589
-2.155,0.00110743724725083
-2.15375,0.00108608813038471
-2.1525,0.00107981504767401
-2.15125,0.0010925564649072
-2.15,0.00112425302741654
-2.14875,0.00117096982939389
-2.1475,0.00122577424348639
-2.14625,0.00128020570502756
-2.145,0.00132609432790431
-2.14375,0.00135733657996745
-2.1425,0.00137117755341397
-2.14125,0.00136870080064561
-2.14,0.0013544703575343
-2.13875,0.00133542901821329
-2.1375,0.00131924662131607
-2.13625,0.00131245035767899
-2.135,0.00131880768621488
-2.13375,0.00133838358077005
-2.1325,0.00136744508881169
-2.13125,0.00139915158302056
-2.13,0.00142487806628734
-2.12875,0.00143596492998208
-2.1275,0.00142555563349571
-2.12625,0.0013900739467912
-2.125,0.00132997429688843
-2.12375,0.00124963314799599
-2.1225,0.00115644530416526
-2.12125,0.00105928847237469
-2.12,0.000966634458263074
-2.11875,0.00088474230445204
-2.1175,0.000816401266436704
-2.11625,0.000760497896793762
-2.115,0.000712416932645119
-2.11375,0.000665144017736716
-2.1125,0.00061088596313247
-2.11125,0.00054291428989555
-2.11,0.000457198283015371
-2.10875,0.000353408025206855
-2.1075,0.000235076339785638
-2.10625,0.000108937129251745
-2.105,-1.64195233319135e-05
-2.10375,-0.000132340625257411
-2.1025,-0.000231964334348215
-2.10125,-0.000311654439707434
-2.1,-0.000371665608173292
-2.09875,-0.000415962512512949
-2.0975,-0.000451303631610206
-2.09625,-0.000485758227134946
-2.095,-0.000526901161114362
-2.09375,-0.000580074074295526
-2.0925,-0.000647155019703076
-2.09125,-0.00072612590651632
-2.09,-0.000811486363322105
-2.08875,-0.000895406319168581
-2.0875,-0.00096942023583563
-2.08625,-0.00102632655836193
-2.085,-0.00106181871351751
-2.08375,-0.00107542752198752
-2.0825,-0.00107060757738548
-2.08125,-0.00105403454123601
-2.08,-0.00103426904318272
-2.07875,-0.00101999654231991
-2.0775,-0.00101818565382344
-2.07625,-0.00103261585872705
-2.075,-0.00106313909755628
-2.07375,-0.00110580219732309
-2.0725,-0.00115376122799332
-2.07125,-0.0011988194664488
-2.07,-0.0012333042953679
-2.06875,-0.00125184338380997
-2.0675,-0.00125257569179757
-2.06625,-0.00123753409851462
-2.065,-0.00121220158824109
-2.06375,-0.00118437951000261
-2.0625,-0.00116255352679614
-2.06125,-0.00115404889041227
-2.06,-0.00116340298002729
-2.05875,-0.00119136815018615
-2.0575,-0.0012347523330395
-2.05625,-0.00128707970728505
-2.055,-0.00133993238607216
-2.05375,-0.00138474054630679
-2.0525,-0.00141463707372963
-2.05125,-0.00142589947394129
-2.05,-0.00141862918892361
-2.04875,-0.00139658822359295
-2.0475,-0.00136630020235352
-2.04625,-0.0013355817419561
-2.045,-0.00131174763428128
-2.04375,-0.00129987855247135
-2.0425,-0.00130159389372523
-2.04125,-0.00131461899868309
-2.04,-0.00133319500138721
-2.03875,-0.00134922388533517
-2.0375,-0.00135395290288022
-2.03625,-0.00133986433049337
-2.035,-0.00130230071140706
-2.03375,-0.00124040957025481
-2.0325,-0.00115724241372013
-2.03125,-0.00105907496580483
-2.03,-0.000954103572370882
-2.02875,-0.000850725616311165
-2.0275,-0.000755742176481412
-2.02625,-0.000672926497073209
-2.025,-0.000602314721962793
-2.02375,-0.000540339568887626
-2.0225,-0.000480735129331434
-2.02125,-0.000416046362653535
-2.02,-0.000339465547813413
-2.01875,-0.000246565799558531
-2.0175,-0.000136476282574052
-2.01625,-1.2241332152883e-05
-2.015,0.000119634436503592
-2.01375,0.000250320656942072
-2.0125,0.000370295074374491
-2.01125,0.000471188945197457
-2.01,0.00054741822459276
-2.00875,0.000597189375549628
-2.0075,0.000622674066163652
-2.00625,0.000629371015817025
-2.005,0.000624794093784579
-2.00375,0.000616719806355005
-2.0025,0.000611376676183013
-2.00125,0.000612046844144124
-2,0.000618419475472112
-1.99875,0.000626768948569465
-1.9975,0.000630849452247069
-1.99625,0.000623341604877495
-1.995,0.000597609148663168
-1.99375,0.000549380434997274
-1.9925,0.000477919955002078
-1.99125,0.000386410521832162
-1.99,0.000281504113727808
-1.98875,0.000172149503773937
-1.9875,6.78903799901347e-05
-1.98625,-2.30337978622798e-05
-1.985,-9.5315209185154e-05
-1.98375,-0.000147518761613669
-1.9825,-0.000182173978620643
-1.98125,-0.000205086298171979
-1.98,-0.000224023729608791
-1.97875,-0.000246988257714303
-1.9775,-0.000280411028384665
-1.97625,-0.000327713258632826
-1.975,-0.000388587261010048
-1.97375,-0.000459118056004983
-1.9725,-0.00053267390166266
-1.97125,-0.000601397880400553
-1.97,-0.000658021711646697
-1.96875,-0.00069757439548288
-1.9675,-0.00071853568908192
-1.96625,-0.000723180794173996
-1.965,-0.000717119946431964
-1.96375,-0.000708168866310504
-1.9625,-0.000704733360151896
-1.96125,-0.000713997691512379
-1.96,-0.000740339770876875
-1.95875,-0.000784377807519695
-1.9575,-0.00084284801428619
-1.95625,-0.000909292112267338
-1.955,-0.000975414477555691
-1.95375,-0.00103287307831867
-1.9525,-0.00107511571463321
-1.95125,-0.00109878539158301
-1.95,-0.00110435439855231
-1.94875,-0.00109591873793675
-1.9475,-0.00108026802014206
-1.94625,-0.00106540152891455
-1.945,-0.0010587373458741
-1.94375,-0.00106540211860753
-1.9425,-0.0010870352497254
-1.94125,-0.00112138426716639
-1.94,-0.0011627309929469
-1.93875,-0.00120303812411037
-1.9375,-0.0012336196726659
-1.93625,-0.00124700190252549
-1.935,-0.00123851038142713
-1.93375,-0.00120717811730358
-1.9325,-0.00115582052224225
-1.93125,-0.00109034968996707
-1.93,-0.00101848362244041
-1.92875,-0.000948056656128608
-1.9275,-0.000885264557136858
-1.92625,-0.000833278474499858
-1.925,-0.000791574029612772
-1.92375,-0.00075609112512092
-1.9225,-0.000720152803165764
-1.92125,-0.000675977075943919
-1.92,-0.000616502001144807
-1.91875,-0.000537093748595368
-1.9175,-0.000436688334232589
-1.91625,-0.000318119521498118
-1.915,-0.000187643457057632
-1.91375,-5.37987000267462e-05
-1.9125,7.42170923060935e-05
-1.91125,0.000188368236354734
-1.91,0.000283379729212292
-1.90875,0.000357709876369793
-1.9075,0.000413697603142794
-1.90625,0.000456906343466856
-1.905,0.000494803905333564
-1.90375,0.000535009604199238
-1.9025,0.000583489413467583
-1.90125,0.00064316851383956
-1.9,0.000713299245234916
-1.89875,0.000789654192892974
-1.8975,0.000865432068250546
-1.89625,0.000932709060002962
-1.895,0.000984193223445589
-1.89375,0.00101489961878638
-1.8925,0.00102331728076402
-1.89125,0.00101179441110697
-1.89,0.000986103144571541
-1.88875,0.000954293140223336
-1.8875,0.000925027793226397
-1.88625,0.000905733641307347
-1.885,0.00090102644166961
-1.88375,0.0009118194462164
-1.8825,0.000935267483967607
-1.88125,0.000965471694806126
-1.88,0.000994785940220935
-1.87875,0.00101551582722842
-1.8775,0.00102167554442571
-1.87625,0.00101036934765049
-1.875,0.000982454008442628
-1.87375,0.000942368650626663
-1.8725,0.000897204677143537
-1.87125,0.000855184870973041
-1.87,0.000823837977470798
-1.86875,0.00080830352700081
-1.8675,0.000810211412322876
-1.86625,0.000827372072467171
-1.865,0.00085425771357159
-1.86375,0.000883133700167017
-1.8625,0.000905660266387638
-1.86125,0.000914681376542158
-1.86,0.00090578499835471
-1.85875,0.000878237523110227
-1.8575,0.00083509875320222
-1.85625,0.00078254223907563
-1.855,0.000728521690402458
-1.85375,0.00068101588009314
-1.8525,0.000646232374577195
-1.85125,0.000627235928230348
-1.85,0.000623334869883896
-1.84875,0.000630292833491361
-1.8475,0.000641253332946366
-1.84625,0.000648208969401005
-1.845,0.00064377027014342
-1.84375,0.000622850405239111
-1.8425,0.000583839051503389
-1.84125,0.000528995721716748
-1.84,0.000464025671832438
-1.83875,0.000396946995172581
-1.8375,0.000336442278216732
-1.83625,0.000290024714830961
-1.835,0.000262477875815688
-1.83375,0.000254967418695685
-1.8325,0.000264973635839085
-1.83125,0.000286971092471846
-1.83,0.000313702078052292
-1.82875,0.000337840579447169
-1.8275,0.000353715437895823
-1.82625,0.00035866156253041
-1.825,0.000353658276533878
-1.82375,0.000343145193984711
-1.8225,0.000334091205957683
-1.82125,0.000334483858073492
-1.82,0.00035151838963822
-1.81875,0.000389914174591818
-1.8175,0.000450801888407802
-1.81625,0.00053142100979092
-1.815,0.00062561160971446
-1.81375,0.000724960133257188
-1.8125,0.000820417255573891
-1.81125,0.000904101277490793
-1.81,0.000970868883880145
-1.80875,0.00101925614435845
-1.8075,0.00105159817996116
-1.80625,0.00107335421653812
-1.805,0.0010917803741065
-1.80375,0.00111418566178838
-1.8025,0.00114615542119762
-1.80125,0.00119020755769922
-1.8,0.00124520694509591
-1.79875,0.0013065951365283
-1.7975,0.00136731698695308
-1.79625,0.00141927519535831
-1.795,0.00145507042284031
-1.79375,0.00146964852755045
-1.7925,0.00146143444463462
-1.79125,0.00143268818035009
-1.79,0.00138904975861967
-1.78875,0.00133838458632518
-1.7875,0.00128912420253902
-1.78625,0.00124843183485345
-1.785,0.001220649897069
-1.78375,0.00120642573009591
-1.7825,0.00120266384953186
-1.78125,0.00120323102168482
-1.78,0.00120025942913344
-1.77875,0.00118584091414625
-1.7775,0.00115377744380614
-1.77625,0.00110095621131551
-1.775,0.0010280110425758
-1.77375,0.000939163196228565
-1.7725,0.000841317049642112
-1.77125,0.000742574926489906
-1.77,0.000650445799434745
-1.76875,0.000570171233033191
-1.7675,0.000503610068387121
-1.76625,0.000448923228375193
-1.765,0.000401045338601253
-1.76375,0.000352803569582921
-1.7625,0.000296501169533983
-1.76125,0.000225680271624139
-1.76,0.000136649940254882
-1.75875,2.93876888180971e-05
-1.7575,-9.23732293117689e-05
-1.75625,-0.000221842566488548
-1.755,-0.000350516272606649
-1.75375,-0.00046993210678956
-1.7525,-0.000573458817504629
-1.75125,-0.000657656970228788
-1.75,-0.000722884120792424
-1.74875,-0.000773081447753217
-1.7475,-0.000814854694538075
-1.74625,-0.000856015775149686
-1.745,-0.000903828681051001
-1.74375,-0.000963342172359055
-1.7425,-0.00103623297139825
-1.74125,-0.00112042470341654
-1.74,-0.0012105160777744
-1.73875,-0.00129890870492531
-1.7375,-0.00137744154474647
-1.73625,-0.00143920303361158
-1.735,-0.00148006409384108
-1.73375,-0.001499537525452
-1.7325,-0.00150081775077108
-1.73125,-0.00149007518902792
-1.73,-0.00147515848812268
-1.72875,-0.00146390999527145
-1.7275,-0.00146242956590826
-1.72625,-0.00147371937737719
-1.725,-0.00149704800543703
-1.72375,-0.00152813960661572
-1.7225,-0.00156011144420508
-1.72125,-0.0015849932340916
-1.72,-0.00159554935425727
-1.71875,-0.00158697604870327
-1.7175,-0.00155803004854861
-1.71625,-0.00151134695150735
-1.715,-0.00145296163893396
-1.71375,-0.00139116912036119
-1.7125,-0.00133490983157647
-1.71125,-0.00129196933075666
-1.71,-0.00126741074127413
-1.70875,-0.00126263327682988
-1.7075,-0.00127524506230776
-1.70625,-0.00129972425041383
-1.705,-0.00132872945495842
-1.70375,-0.00135482766051507
-1.7025,-0.0013722596512533
-1.70125,-0.00137828192294798
-1.7,-0.00137376082645312
-1.69875,-0.00136295849731262
-1.6975,-0.00135262287618295
-1.69625,-0.00135054488704583
-1.695,-0.00136382285687004
-1.69375,-0.00139721467266711
-1.6925,-0.00145200081419126
-1.69125,-0.00152562329713761
-1.69,-0.00161213337951459
-1.68875,-0.00170333798646059
-1.6875,-0.0017904530359024
-1.68625,-0.00186593608465745
-1.685,-0.00192503898605655
-1.68375,-0.00196667933389717
-1.6825,-0.00199347913132486
-1.68125,-0.0020110455509322
-1.68,-0.00202665315708259
-1.67875,-0.00204753996338673
-1.6775,-0.00207915595435516
-1.67625,-0.00212379600054626
-1.675,-0.00217995280080132
-1.67375,-0.00224249451754297
-1.6725,-0.00230359179685391
-1.67125,-0.00235422933350834
-1.67,-0.00238602245704056
-1.66875,-0.00239290962831389
-1.6675,-0.00237227939986739
-1.66625,-0.00232529638276471
-1.665,-0.0022564439745012
-1.66375,-0.00217242250691604
-1.6625,-0.0020805835530239
-1.66125,-0.00198718832847421
-1.66,-0.00189590897656377
-1.65875,-0.00180696495672042
-1.6575,-0.00171707631288062
-1.65625,-0.00162019779527542
-1.655,-0.00150888576242059
-1.65375,-0.00137605944144263
-1.6525,-0.0012167723537947
-1.65125,-0.00102953257196583
-1.65,-0.000816852155445518
-1.64875,-0.00058497244208005
-1.6475,-0.000342883896014893
-1.64625,-0.000100808478794475
-1.645,0.000131610268433529
-1.64375,0.000347023035979565
-1.6425,0.000541569288009745
-1.64125,0.000715285625183349
-1.64,0.000871697993522346
-1.63875,0.00101671099012099
-1.6375,0.00115698878216744
-1.63625,0.00129815641950084
-1.635,0.00144327852515739
-1.63375,0.00159201086773728
-1.6325,0.00174057113197833
-1.63125,0.00188245328853216
-1.63,0.0020097300295641
-1.62875,0.00211473554474891
-1.6275,0.00219179186866335
-1.62625,0.00223854577337499
-1.625,0.00225657913996294
-1.62375,0.00225118883935771
-1.6225,0.00223041417524527
-1.62125,0.0022034794516061
-1.62,0.00217893333439163
-1.61875,0.00216291799835726
-1.6175,0.00215801671651299
-1.61625,0.00216292334426143
-1.615,0.00217291954728921
-1.61375,0.0021810173797995
-1.6125,0.0021795777886919
-1.61125,0.00216210880381058
-1.61,0.00212481980438825
-1.60875,0.00206753726506868
-1.6075,0.00199379756220539
-1.60625,0.00191014900104431
-1.605,0.00182480748273746
-1.60375,0.00174590238739359
-1.6025,0.00167969731474977
-1.60125,0.00162924937345754
-1.6,0.00159382991590576
-1.59875,0.00156916347931886
-1.5975,0.00154836916727411
-1.59625,0.00152343713401498
-1.595,0.00148699325599797
-1.59375,0.00143396496671821
-1.5925,0.0013627234285501
-1.59125,0.00127543959730178
-1.59,0.00117762373172374
-1.58875,0.00107695957139505
-1.5875,0.000981629326882918
-1.58625,0.000898466600064178
-1.585,0.00083140451539276
-1.58375,0.000780618880141457
-1.5825,0.00074251024377252
-1.58125,0.000710445717869452
-1.58,0.000676102707758686
-1.57875,0.000631203034515464
-1.5775,0.000569294683919556
-1.57625,0.000487142983803105
-1.575,0.000385391456858122
-1.57375,0.000268387211547031
-1.5725,0.000143248864040993
-1.57125,1.83459862758037e-05
-1.57,-9.85264543632895e-05
-1.56875,-0.000201846393597665
-1.5675,-0.000289491653751892
-1.56625,-0.000363057791845311
-1.565,-0.00042738309254033
-1.56375,-0.000489420060857779
-1.5625,-0.000556637185416548
-1.56125,-0.000635242608422376
-1.56,-0.000728650713888754
-1.55875,-0.000836585475963257
-1.5575,-0.000955007265987373
-1.55625,-0.00107683578777732
-1.555,-0.00119332811476208
-1.55375,-0.00129587353733663
-1.5525,-0.00137781414584777
-1.55125,-0.0014358200428708
-1.55,-0.00147049130753373
-1.54875,-0.00148612811694185
-1.5475,-0.00148978474479578
-1.54625,-0.0014897755600523
-1.545,-0.00149388283187048
-1.54375,-0.00150765947824698
-1.5425,-0.00153325813798077
-1.54125,-0.00156905170922145
-1.54,-0.0016100740964414
-1.53875,-0.00164916686538817
-1.5375,-0.00167863416848355
-1.53625,-0.00169206987618244
-1.535,-0.00168589228610658
-1.53375,-0.00166018917859298
-1.5325,-0.00161873091994785
-1.53125,-0.00156823139304469
-1.53,-0.00151701455769105
-1.52875,-0.00147329703256728
-1.5275,-0.00144342701205875
-1.52625,-0.00143051498125745
-1.525,-0.00143379455357986
-1.52375,-0.00144881940093828
-1.5225,-0.00146842049957896
-1.52125,-0.00148425510903902
-1.52,-0.00148866055606056
-1.51875,-0.00147637536514602
-1.5175,-0.00144568003442774
-1.51625,-0.00139871800870278
-1.515,-0.00134101233192564
-1.51375,-0.00128031745172528
-1.5125,-0.00122499266052953
-1.51125,-0.00118219492605118
-1.51,-0.00115631902583188
-1.50875,-0.00114808143427599
-1.5075,-0.00115443083473449
-1.50625,-0.00116925166379133
-1.505,-0.00118471655203256
-1.50375,-0.00119305094111951
-1.5025,-0.00118832260060742
-1.50125,-0.0011677879502638
-1.5,-0.00113246859357844
-1.49875,-0.0010869003061411
-1.4975,-0.00103817243349489
-1.49625,-0.000994429537530318
-1.495,-0.000963087272927702
-1.49375,-0.000949153478679057
-1.4925,-0.00095408161156372
-1.49125,-0.000975419606512317
-1.49,-0.00100728319307479
-1.48875,-0.00104153912349895
-1.4875,-0.00106949853346283
-1.48625,-0.00108378111496076
-1.485,-0.00107988244193149
-1.48375,-0.00105704519247522
-1.4825,-0.0010182909361424
-1.48125,-0.000969691892837101
-1.48,-0.000919040819369299
-1.47875,-0.000874131440114799
-1.4775,-0.000840993659991247
-1.47625,-0.000822522291776132
-1.475,-0.00081783712264915
-1.47375,-0.000822476176420212
-1.4725,-0.00082934176958067
-1.47125,-0.000830228427545673
-1.47,-0.000817645973896239
-1.46875,-0.000786502451471712
-1.4675,-0.000735203885795407
-1.46625,-0.000665938830971972
-1.465,-0.000584169822998526
-1.46375,-0.000497473448432269
-1.4625,-0.000413913580406484
-1.46125,-0.000340242299942428
-1.46,-0.000280354505424829
-1.45875,-0.000234393259921887
-1.4575,-0.000198690901640863
-1.45625,-0.00016651339362321
-1.455,-0.000129461285119715
-1.45375,-7.92837862175971e-05
-1.4525,-9.71047244146209e-06
-1.45125,8.21715439111344e-05
-1.45,0.000195319756108236
-1.44875,0.000324972720600575
-1.4475,0.000463603721211145
-1.44625,0.000602422415300613
-1.445,0.000733172081912335
-1.44375,0.00084982727246922
-1.4425,0.000949761156643672
-1.44125,0.00103411986387959
-1.44,0.00110737713660277
-1.43875,0.00117618526031872
-1.4375,0.00124772252617485
-1.43625,0.00132787613759561
-1.435,0.00141972531126638
-1.43375,0.00152271799862666
-1.4325,0.00163267873283618
-1.43125,0.00174256577465804
-1.43,0.00184382020901719
-1.42875,0.00192809604587954
-1.4275,0.00198902785136223
-1.42625,0.00202359754218864
-1.425,0.00203276295420121
-1.42375,0.00202124627193464
-1.4225,0.00199656145373612
-1.42125,0.00196745022368906
-1.42,0.00194201385464801
-1.41875,0.00192597932239988
-1.4175,0.0019215488483677
-1.41625,0.00192707276077627
-1.415,0.00193752992604424
-1.41375,0.00194567566961696
-1.4125,0.00194366975863707
-1.41125,0.00192488566240625
-1.41,0.00188547270121184
-1.40875,0.0018252745655685
-1.4075,0.0017479207214983
-1.40625,0.00166012306924813
-1.405,0.00157032135512625
-1.40375,0.00148691513367342
-1.4025,0.00141647132064964
-1.40125,0.00136237478545652
-1.4,0.00132424497416452
-1.39875,0.00129817382974042
-1.3975,0.00127766887356178
-1.39625,0.00125513351613558
-1.395,0.0012236342402891
-1.39375,0.00117856270471364
-1.3925,0.00111876575331988
-1.39125,0.00104688271850434
-1.39,0.000968863121196039
-1.38875,0.00089277967432256
-1.3875,0.000827136556277589
-1.38625,0.000779012846381295
-1.385,0.00075250766572668
-1.38375,0.000747882915875966
-1.3825,0.000761544675729658
-1.38125,0.000786785133956715
-1.38,0.000815129184351898
-1.37875,0.000838072958474421
-1.3775,0.000848867623907554
-1.37625,0.00084390785577276
-1.375,0.000823386575500911
-1.37375,0.000791113513632053
-1.3725,0.000753576838012613
-1.37125,0.000718418629154178
-1.37,0.000692613409177252
-1.36875,0.00068078825575591
-1.3675,0.000684127520925854
-1.36625,0.000700091714302868
-1.365,0.000722927449085486
-1.36375,0.00074482752255297
-1.3625,0.000757555685492374
-1.36125,0.000754239091014185
-1.36,0.000730902865858113
-1.35875,0.000687354728016686
-1.3575,0.000627239426102237
-1.35625,0.000557295691476503
-1.355,0.000485959376472633
-1.35375,0.000421554501430109
-1.3525,0.000370468530154093
-1.35125,0.000335785893354236
-1.35,0.000316705904929126
-1.34875,0.000308799991601941
-1.3475,0.00030498856809723
-1.34625,0.000297063220426719
-1.345,0.000277495828340234
-1.34375,0.000241135754817531
-1.3425,0.000186365357128082
-1.34125,0.000115455055217549
-1.34,3.40944525102599e-05
-1.33875,-4.97833618483323e-05
-1.3375,-0.000127683156360904
-1.33625,-0.000192393193503112
-1.335,-0.000239527460083615
-1.33375,-0.000268370137803163
-1.3325,-0.000281886121385357
-1.33125,-0.000285980952712834
-1.33,-0.000288168554859006
-1.32875,-0.000295859258813291
-1.3275,-0.000314613159341739
-1.32625,-0.000346796579341629
-1.325,-0.000390976360209609
-1.32375,-0.000442151193699224
-1.3225,-0.000492738446380105
-1.32125,-0.000534143333746336
-1.32,-0.000558618406948375
-1.31875,-0.00056097238054272
-1.3175,-0.00053968369535873
-1.31625,-0.000497188035817953
-1.315,-0.000439362436927529
-1.31375,-0.000374348386992995
-1.3125,-0.000310902552990935
-1.31125,-0.000256575671059605
-1.31,-0.000216148092677809
-1.30875,-0.000190715449122713
-1.3075,-0.000177603950483154
-1.30625,-0.000171081031608951
-1.305,-0.000163716792825564
-1.30375,-0.000148154764175114
-1.3025,-0.000118897707344273
-1.30125,-7.36394611604316e-05
-1.3,-1.38237615723706e-05
-1.29875,5.56194082456069e-05
-1.2975,0.000127239487475213
-1.29625,0.000192562830064355
-1.295,0.000243870556702762
-1.29375,0.00027586421450798
-1.2925,0.000286792681157037
-1.29125,0.000278781669751861
-1.29,0.000257341217358175
-1.28875,0.000230167929929765
-1.2875,0.000205445225927244
-1.28625,0.000189987104809841
-1.285,0.000187696307497706
-1.28375,0.000198731310143502
-1.2825,0.000219516857664174
-1.28125,0.000243513114559385
-1.28,0.000262582463379206
-1.27875,0.000268737353828018
-1.2775,0.000255920843491319
-1.27625,0.000221382128723904
-1.275,0.000166314862549795
-1.27375,9.56600857078495e-05
-1.2725,1.7152971900345e-05
-1.27125,-6.02174583917089e-05
-1.27,-0.000128047337185338
-1.26875,-0.000180218215533672
-1.2675,-0.000214017636605528
-1.26625,-0.000230451715019736
-1.265,-0.000233771827642984
-1.26375,-0.000230354343299434
-1.2625,-0.000227117481092978
-1.26125,-0.000229771175431334
-1.26,-0.000241323142918259
-1.25875,-0.000261229297169311
-1.2575,-0.000285364335261299
-1.25625,-0.0003067763522683
-1.255,-0.000317080330677004
-1.25375,-0.000308250063889628
-1.2525,-0.00027441679209651
-1.25125,-0.000213207728710988
-1.25,-0.000126305586077466
-1.24875,-1.91783912317651e-05
-1.2475,9.99013924801206e-05
-1.24625,0.0002213785672833
-1.245,0.000336224039724106
-1.24375,0.000437634255588997
-1.2425,0.000522192321545876
-1.24125,0.000590233676472065
-1.24,0.000645395917575771
-1.23875,0.000693473042524885
-1.2375,0.000740776494480254
-1.23625,0.000792342114495026
-1.235,0.000850444400372016
-1.23375,0.000913804828900249
-1.2325,0.000977626444913768
-1.23125,0.00103437189136691
-1.23,0.00107512779837991
-1.22875,0.00109134292198206
-1.2275,0.00107659534807349
-1.22625,0.00102795337433651
-1.225,0.000946597697208058
-1.22375,0.000837604866995421
-1.2225,0.000708969723361976
-1.22125,0.000570036443187267
-1.22,0.000429629602108192
-1.21875,0.000294327431889968
-1.2175,0.000167321921546042
-1.21625,4.80945565729008e-05
-1.215,-6.71160659390594e-05
-1.21375,-0.000184194687573323
-1.2125,-0.000309562197902452
-1.21125,-0.000448418456635646
-1.21,-0.000603241663670659
-1.20875,-0.000772934054607012
-1.2075,-0.000952788068025784
-1.20625,-0.00113523415594177
-1.205,-0.0013112235331613
-1.20375,-0.00147200460057676
-1.2025,-0.00161090193056923
-1.20125,-0.00172463533577417
-1.2,-0.00181386660223878
-1.19875,-0.00188292682956616
-1.1975,-0.00193884309635893
-1.19625,-0.00198983300569115
-1.195,-0.00204351908276775
-1.19375,-0.00210525512430462
-1.1925,-0.00217698693782661
-1.19125,-0.0022569017394605
-1.19,-0.00233989082152172
-1.18875,-0.0024187119686432
-1.1875,-0.00248565170790164
-1.18625,-0.00253434599324407
-1.185,-0.00256129498148289
-1.18375,-0.00256668407815544
-1.1825,-0.00255437936620494
-1.18125,-0.002531180170632
-1.18,-0.00250548440756276
-1.17875,-0.00248557739462118
-1.1775,-0.00247788740026071
-1.17625,-0.00248564163418993
-1.175,-0.00250825165113992
-1.17375,-0.00254152348719206
-1.1725,-0.00257861077709044
-1.17125,-0.00261153970003234
-1.17,-0.00263301687715317
-1.16875,-0.00263808558068179
-1.1675,-0.0026251961958978
-1.16625,-0.00259647054419341
-1.165,-0.00255718696394587
-1.16375,-0.0025146266885674
-1.1625,-0.00247646716598509
-1.16125,-0.00244902042676923
-1.16,-0.00243573958720424
-1.15875,-0.00243637720705825
-1.1575,-0.00244696490055948
-1.15625,-0.00246057346219
-1.155,-0.00246870631090999
-1.15375,-0.00246308417283992
-1.1525,-0.00243742844400813
-1.15125,-0.00238878019782203
-1.15,-0.00231804451083476
-1.14875,-0.00222971723968898
-1.1475,-0.00213091663254212
-1.14625,-0.00202988988042804
-1.145,-0.00193424681607878
-1.14375,-0.00184931241833591
-1.1425,-0.00177701808907304
-1.14125,-0.00171558067382158
-1.14,-0.00165998794354018
-1.13875,-0.00160317347249295
-1.1375,-0.00153767988431684
-1.13625,-0.00145746879254815
-1.135,-0.00135941413867178
-1.13375,-0.0012440949087933
-1.1325,-0.00111576055265095
-1.13125,-0.000981555854298748
-1.13,-0.000850163610532263
-1.12875,-0.00073007849267334
-1.1275,-0.000627857188234986
-1.12625,-0.0005467773972955
-1.125,-0.000486231142907951
-1.12375,-0.000441945003548997
-1.1225,-0.00040694551858134
-1.12125,-0.000373099817317039
-1.12,-0.000332942210293048
-1.11875,-0.000281349571240048
-1.1175,-0.000216628761120094
-1.11625,-0.000140794763316646
-1.115,-5.9067235660408e-05
-1.11375,2.1273257764081e-05
-1.1125,9.24848856669092e-05
-1.11125,0.000148124827474267
-1.11,0.000184549668510353
-1.10875,0.00020177229571469
-1.1075,0.000203502818153668
-1.10625,0.000196409822064578
-1.105,0.000188745921679728
-1.10375,0.000188578357186545
-1.1025,0.000202017135301196
-1.10125,0.000231904230345707
-1.1,0.000277274958274929
-1.09875,0.000333635955593106
-1.0975,0.000393939642138398
-1.09625,0.000450086189603718
-1.095,0.000494699188071836
-1.09375,0.0005227800611203
-1.0925,0.000532818352956135
-1.09125,0.000527107188423782
-1.09,0.00051124480637925
-1.08875,0.000492940599803405
-1.0875,0.000480329976194997
-1.08625,0.000480143888344241
-1.085,0.000496199258976206
-1.08375,0.000528594810479879
-1.0825,0.000573737761136671
-1.08125,0.000625112921340949
-1.08,0.000674634102271505
-1.07875,0.00071436256628036
-1.0775,0.00073824585101748
-1.07625,0.000743444507411942
-1.075,0.00073092326113995
-1.07375,0.00070521638664462
-1.0725,0.000673451157706532
-1.07125,0.000643801958459531
-1.07,0.000623667553711655
-1.06875,0.000618010382730885
-1.0675,0.000628292782769455
-1.06625,0.000652226971015341
-1.065,0.000684306702173488
-1.06375,0.000716976994737416
-1.0625,0.00074225628590811
-1.06125,0.000753513432373194
-1.06,0.000746975998281233
-1.05875,0.000722585990802792
-1.0575,0.000684033952384717
-1.05625,0.000638010967267181
-1.055,0.000592823264169881
-1.05375,0.000556610111528879
-1.0525,0.000535558581578787
-1.05125,0.000532580679551609
-1.05,0.000546765553194219
-1.04875,0.00057365140747557
-1.0475,0.000606195867163836
-1.04625,0.000636274299964212
-1.045,0.000656451446104797
-1.04375,0.000661631858426986
-1.0425,0.000650167870143341
-1.04125,0.000624176407372939
-1.04,0.000589047267580305
-1.03875,0.000552262083155067
-1.0375,0.000521727495098379
-1.03625,0.000503965622710554
-1.035,0.000502623787469863
-1.03375,0.000517683984614083
-1.0325,0.000545496100137703
-1.03125,0.000579548290908536
-1.03,0.000611817441048185
-1.02875,0.000634485275174145
-1.0275,0.000641671525472683
-1.02625,0.000630749440863019
-1.025,0.000602920288517796
-1.02375,0.000562959411326024
-1.0225,0.000518220807382366
-1.02125,0.000477074018689266
-1.02,0.000447065613687513
-1.01875,0.000433244728987517
-1.0175,0.000437089473836086
-1.01625,0.000456252708373976
-1.015,0.000485095705600074
-1.01375,0.00051586519518827
-1.0125,0.000540325287887063
-1.01125,0.000551543142374658
-1.01,0.000545402872912301
-1.00875,0.000521464081204453
-1.0075,0.000482997509738158
-1.00625,0.00043624016303182
-1.005,0.000389019119900631
-1.00375,0.000348990223988764
-1.0025,0.000321887442030688
-1.00125,0.000310242934685265
-1,0.00031287982115803
-0.99875,0.000325213963969583
-0.9975,0.000340241231686817
-0.99625,0.000350040610570925
-0.995,0.000347539564308861
-0.99375,0.000328148394819385
-0.9925,0.000290844405984673
-0.99125,0.000238459635395945
-0.99,0.000177156479064142
-0.98875,0.000115210919380265
-0.9875,6.13067275016474e-05
-0.98625,2.26838943774064e-05
-0.985,3.60478590465363e-06
-0.98375,4.52238895909783e-06
-0.9825,2.20807063399574e-05
-0.98125,4.98666652799449e-05
-0.98,7.97589484240451e-05
-0.97875,0.000103657102577556
-0.9775,0.000115237686691695
-0.97625,0.000111298965264159
-0.975,9.23684221495951e-05
-0.97375,6.24831704560465e-05
-0.9725,2.82279342203859e-05
-0.97125,-2.79532467462302e-06
-0.97,-2.37716346977245e-05
-0.96875,-3.03122781669794e-05
-0.9675,-2.14969984471435e-05
-0.96625,-1.0417301858878e-07
-0.965,2.79402193603937e-05
-0.96375,5.47521582090784e-05
-0.9625,7.21291969954704e-05
-0.96125,7.33373905078909e-05
-0.96,5.46183797935537e-05
-0.95875,1.6032912599671e-05
-0.9575,-3.85253385673523e-05
-0.95625,-0.000102102066577921
-0.955,-0.000166091083560041
-0.95375,-0.000222033030479847
-0.9525,-0.000263407066570374
-0.95125,-0.000286952872920309
-0.95,-0.000293217160848584
-0.94875,-0.000286284346973465
-0.9475,-0.000272811766451013
-0.94625,-0.000260537988661421
-0.945,-0.000256520064507854
-0.94375,-0.000265496796322712
-0.9425,-0.000288799022289134
-0.94125,-0.000324052256494238
-0.94,-0.00036568608989181
-0.93875,-0.000406129478517189
-0.9375,-0.000437485586380949
-0.93625,-0.000453338894859117
-0.935,-0.000450231242724807
-0.93375,-0.000428430059760638
-0.9325,-0.000391870025127745
-0.93125,-0.000347357773603558
-0.93,-0.000303198787307342
-0.92875,-0.000267463788650038
-0.9275,-0.000246245231737385
-0.92625,-0.000242337390752363
-0.925,-0.000254660411550579
-0.92375,-0.000278514516141982
-0.9225,-0.000306578603226215
-0.92125,-0.000330480178245621
-0.92,-0.000342642650370235
-0.91875,-0.000337969162569148
-0.9175,-0.000314927640585064
-0.91625,-0.000275819790875497
-0.915,-0.000226262707483737
-0.91375,-0.00017402251924659
-0.9125,-0.000127385965689964
-0.91125,-9.33727157083204e-05
-0.91,-7.62174271386766e-05
-0.90875,-7.65071369057008e-05
-0.9075,-9.11415372942519e-05
-0.90625,-0.000114073598558123
-0.905,-0.000137681753360225
-0.90375,-0.000154528369637622
-0.9025,-0.00015910971619147
-0.90125,-0.00014913741769807
-0.9,-0.000126047475316538
-0.89875,-9.46973996270568e-05
-0.8975,-6.23726814360683e-05
-0.89625,-3.72723197037806e-05
-0.895,-2.67299863809592e-05
-0.89375,-3.55676376440708e-05
-0.8925,-6.50012566206989e-05
-0.89125,-0.000112342457391738
-0.89,-0.000171509794684293
-0.88875,-0.000234230667578686
-0.8875,-0.00029173132583315
-0.88625,-0.000336570895787526
-0.885,-0.000364155542901072
-0.88375,-0.000373551801143296
-0.8825,-0.000367475313336225
-0.88125,-0.000351541156730163
-0.88,-0.00033293328164712
-0.87875,-0.000318710271630447
-0.8775,-0.000314098922079786
-0.87625,-0.000321209353783887
-0.875,-0.000338489717064324
-0.87375,-0.00036100214303808
-0.8725,-0.000381429091594499
-0.87125,-0.000391632722399671
-0.87,-0.000384471554007927
-0.86875,-0.000355436489753691
-0.8675,-0.000303678735741398
-0.86625,-0.000232222485663827
-0.865,-0.000147400066314058
-0.86375,-5.76546783682003e-05
-0.8625,2.81020315350708e-05
-0.86125,0.000102277750613482
-0.86,0.00016010977117188
-0.85875,0.000200519202297199
-0.8575,0.000226146073272107
-0.85625,0.000242607127733159
-0.855,0.000257121088042761
-0.85375,0.000276744642767379
-0.8525,0.000306615582696883
-0.85125,0.000348665017894353
-0.85,0.000401102592628023
-0.84875,0.000458714034256581
-0.8475,0.000513851090654461
-0.84625,0.000557945534778032
-0.845,0.000583291051841276
-0.84375,0.000584695905280183
-0.8425,0.000560586105081768
-0.84125,0.000513314614028456
-0.84,0.000448661704659055
-0.83875,0.000374644222391572
-0.8375,0.000299835845692753
-0.83625,0.000231543693790112
-0.835,0.000174305866785782
-0.83375,0.000129088791663456
-0.8325,9.33050652631421e-05
-0.83125,6.15650100901928e-05
-0.83,2.70059422882972e-05
-0.82875,-1.7017496219029e-05
-0.8275,-7.52341597951849e-05
-0.82625,-0.000149181462266378
-0.825,-0.000236670431760637
-0.82375,-0.000332071371890439
-0.8225,-0.000427330765922068
-0.82125,-0.000513543587949722
-0.82,-0.000582784793644532
-0.81875,-0.00062976072998566
-0.8175,-0.00065285270297382
-0.81625,-0.000654345934778542
-0.815,-0.000639880760617365
-0.81375,-0.000617269383464238
-0.8125,-0.000594865329703914
-0.81125,-0.000579787759536661
-0.81,-0.000576425383262886
-0.80875,-0.000585597660960492
-0.8075,-0.000604532849019068
-0.80625,-0.000627615788191222
-0.805,-0.000647754876306936
-0.80375,-0.000658121190989887
-0.8025,-0.000653864019356393
-0.80125,-0.000633346966062499
-0.8,-0.000598610419577645
-0.79875,-0.000555030511608022
-0.7975,-0.000510300897442573
-0.79625,-0.000472908657135637
-0.795,-0.000450361034479247
-0.79375,-0.000447558363758312
-0.7925,-0.000465729339861742
-0.79125,-0.000502167800081589
-0.79,-0.000550780464644674
-0.78875,-0.00060332221196403
-0.7875,-0.000651111453341079
-0.78625,-0.000686876745193669
-0.785,-0.000706269248371388
-0.78375,-0.000708663821058097
-0.7825,-0.000697131543340607
-0.78125,-0.000677674743526376
-0.78,-0.000657883783144178
-0.77875,-0.000645232650839536
-0.7775,-0.000645362822335523
-0.77625,-0.000660784869005586
-0.775,-0.000690312793656392
-0.77375,-0.000729314817490691
-0.7725,-0.000770695631976621
-0.77125,-0.000806437152209105
-0.77,-0.000829402449373317
-0.76875,-0.000834963986850584
-0.7675,-0.000822029312606824
-0.76625,-0.000793257857948054
-0.765,-0.000754504750525504
-0.76375,-0.000713633938223523
-0.7625,-0.000678887946276896
-0.76125,-0.000657117008234948
-0.76,-0.00065229164478368
-0.75875,-0.000664674425253909
-0.7575,-0.000690809333506406
-0.75625,-0.000724282798789524
-0.755,-0.000757108583318809
-0.75375,-0.000781492220268749
-0.7525,-0.000791580362652604
-0.75125,-0.000784737007474424
-0.75,-0.00076204708216955
-0.74875,-0.000728012160786588
-0.7475,-0.000689561649500015
-0.74625,-0.000654550197983388
-0.745,-0.000629999145708473
-0.74375,-0.000620478476724639
-0.7425,-0.000627044672846549
-0.74125,-0.000646971449243848
-0.74,-0.000674281520820659
-0.73875,-0.000700956196774665
-0.7375,-0.000718616551605132
-0.73625,-0.000720330493031377
-0.735,-0.000702086317016608
-0.73375,-0.000663561691536184
-0.7325,-0.000608073856935509
-0.73125,-0.000541802499558898
-0.73,-0.00047244544907829
-0.72875,-0.000407526609336256
-0.7275,-0.000352707178533894
-0.72625,-0.000310527454728467
-0.725,-0.000279887278876372
-0.72375,-0.000256340120432255
-0.7225,-0.000233109449577638
-0.72125,-0.000202650732633634
-0.72,-0.000158460630579643
-0.71875,-9.66928312914388e-05
-0.7175,-1.71561724078815e-05
-0.71625,7.65046627560549e-05
-0.715,0.000177403018799774
-0.71375,0.000276632638461219
-0.7125,0.000364930191489032
-0.71125,0.000434474721475746
-0.71,0.000480399697754529
-0.70875,0.000501642661332032
-0.7075,0.000500974998470465
-0.70625,0.000484258158414668
-0.705,0.000459074627150253
-0.70375,0.000432978742735783
-0.7025,0.000411760728974203
-0.70125,0.000398177079645386
-0.7,0.000391441364453476
-0.69875,0.000387509804623455
-0.6975,0.000380042749265105
-0.69625,0.000361876985390927
-0.695,0.000326754324167157
-0.69375,0.000270911051250089
-0.6925,0.000194113803100142
-0.69125,9.99062165991e-05
-0.69,-4.94166630620508e-06
-0.68875,-0.000111660210030868
-0.6875,-0.000211180072662867
-0.68625,-0.000295960660337367
-0.685,-0.000361485046349504
-0.68375,-0.000407044925128162
-0.6825,-0.000435696912890903
-0.68125,-0.000453479895187625
-0.68,-0.000468053493796243
-0.67875,-0.000486978261132467
-0.6775,-0.000515991528498633
-0.67625,-0.000557709392116429
-0.675,-0.000611064961401831
-0.67375,-0.000671559468737418
-0.6725,-0.000732237275895818
-0.67125,-0.000785212177578011
-0.67,-0.000823452237838007
-0.66875,-0.000842387604940143
-0.6675,-0.000840918383669457
-0.66625,-0.000821620111240224
-0.665,-0.000790185416606423
-0.66375,-0.000754245288819838
-0.6625,-0.000721757419024554
-0.66125,-0.00069926343016527
-0.66,-0.000690436193794895
-0.65875,-0.000695288221711815
-0.6575,-0.00071019476181169
-0.65625,-0.000728682330151218
-0.655,-0.000742832047051953
-0.65375,-0.000745050034557741
-0.6525,-0.000729808893723654
-0.65125,-0.000694906642737402
-0.65,-0.000641951551352568
-0.64875,-0.000576042833120174
-0.6475,-0.00050477106980578
-0.64625,-0.000436708352487371
-0.645,-0.000379645948971047
-0.64375,-0.000338975081922804
-0.6425,-0.000316622687685848
-0.64125,-0.000310774513741379
-0.64,-0.000316391248520033
-0.63875,-0.000326395007108976
-0.6375,-0.000333321291700172
-0.63625,-0.000331091542838275
-0.635,-0.000316448380396376
-0.63375,-0.000289686702147313
-0.6325,-0.000254572428451806
-0.63125,-0.000217543915341895
-0.63,-0.000186355096242915
-0.62875,-0.00016837680993378
-0.6275,-0.000168905745460704
-0.62625,-0.000189907684191733
-0.625,-0.000229502049046871
-0.62375,-0.000282261371393856
-0.6225,-0.000340233758652475
-0.62125,-0.000394512915416319
-0.62,-0.000437059560004666
-0.61875,-0.000462335284701012
-0.6175,-0.000468325310049316
-0.61625,-0.000456751237724923
-0.615,-0.000432517803250833
-0.61375,-0.000402541298872671
-0.6125,-0.000374149469429911
-0.61125,-0.000353355593038132
-0.61,-0.000343427153557794
-0.60875,-0.000344116963562721
-0.6075,-0.0003517046548672
-0.60625,-0.000359791763388638
-0.605,-0.000360693341108918
-0.60375,-0.000347176330754379
-0.6025,-0.00031415191068769
-0.60125,-0.000259875717968598
-0.6,-0.000186375060403236
-0.59875,-9.90836438443e-05
-0.5975,-5.81392908963459e-06
-0.59625,8.47620909853431e-05
-0.595,0.0001648687553948
-0.59375,0.000229228368958521
-0.5925,0.000276101617835799
-0.59125,0.000307538025393442
-0.59,0.000328833107875769
-0.58875,0.00034731735233816
-0.5875,0.000370685554988082
-0.58625,0.000405214523534289
-0.585,0.000454325489632131
-0.58375,0.0005178515984165
-0.5825,0.000592112729361439
-0.58125,0.000670700842456138
-0.58,0.000745817588425973
-0.57875,0.00080994911738929
-0.5775,0.000857531516459513
-0.57625,0.000886185481228357
-0.575,0.000897218608289102
-0.57375,0.000895323938293761
-0.5725,0.000887566220644629
-0.57125,0.000881831949357477
-0.57,0.000885042241802996
-0.56875,0.00090156770678737
-0.5675,0.000932261375012173
-0.56625,0.00097429788251519
-0.565,0.00102176955592585
-0.56375,0.00106689251355729
-0.5625,0.00110163462594729
-0.56125,0.00111946296763435
-0.56,0.00111679097374279
-0.55875,0.00109375825006219
-0.5575,0.00105419323927898
-0.55625,0.00100481022718104
-0.555,0.000953793515432488
-0.55375,0.000909019874080465
-0.5525,0.000876317814530083
-0.55125,0.000858216346357308
-0.55,0.000853470794118033
-0.54875,0.000857391642672281
-0.5475,0.000862850142033316
-0.54625,0.000861789336597436
-0.545,0.000846981612381802
-0.54375,0.000813637456954798
-0.5425,0.000760456260008724
-0.54125,0.000689890329160322
-0.54,0.000607618573705086
-0.53875,0.000521353063586975
-0.5375,0.000439183225110875
-0.53625,0.000367801637659
-0.535,0.000311066427842982
-0.53375,0.000269263327972533
-0.5325,0.000239174338370537
-0.53125,0.000214859759099967
-0.53,0.000188996440742988
-0.52875,0.000154556164398655
-0.5275,0.000106475384779499
-0.52625,4.28928537084194e-05
-0.525,-3.43471858973673e-05
-0.52375,-0.000119996586395361
-0.5225,-0.000206416880148642
-0.52125,-0.000285130149247246
-0.52,-0.000348613835236171
-0.51875,-0.00039190638965372
-0.5175,-0.00041360680459448
-0.51625,-0.000416072001024341
-0.515,-0.000404853968073813
-0.51375,-0.000387520110288541
-0.5125,-0.000372043402302833
-0.51125,-0.000365063277252895
-0.51,-0.000370435705393803
-0.50875,-0.000388438295399315
-0.5075,-0.000415779746632215
-0.50625,-0.000446363806985928
-0.505,-0.000472658343095974
-0.50375,-0.000487421734654781
-0.5025,-0.000485391436631691
-0.50125,-0.00046448764966218
-0.5,-0.000426252035723628
-0.49875,-0.000375501676602715
-0.4975,-0.000319326980352386
-0.49625,-0.000265603501967845
-0.495,-0.00022127220892981
-0.49375,-0.000190776990031597
-0.4925,-0.000175061372526399
-0.49125,-0.000171347512136952
-0.49,-0.000173698117145613
-0.48875,-0.000174237366412396
-0.4875,-0.000164826201382574
-0.48625,-0.000138849199543099
-0.485,-9.26600732157462e-05
-0.48375,-2.63241220812663e-05
-0.4825,5.644902639915e-05
-0.48125,0.00014908904323559
-0.48,0.00024350691085582
-0.47875,0.000331777597575316
-0.4775,0.000407814088070089
-0.47625,0.000468612061830942
-0.475,0.000514767153285165
-0.47375,0.000550196158111599
-0.4725,0.000581154137653861
-0.47125,0.000614722164779548
-0.47,0.000657060802281169
-0.46875,0.000711861872985755
-0.4675,0.000779408813078475
-0.46625,0.000856431440214018
-0.465,0.000936705883107656
-0.46375,0.001012253660581
-0.4625,0.00107495299883558
-0.46125,0.00111826234692663
-0.46,0.00113864098621806
-0.45875,0.00113630639857444
-0.4575,0.00111518431938785
-0.45625,0.00108210482371665
-0.455,0.00104539591572041
-0.45375,0.00101312370701291
-0.4525,0.000991374709330553
-0.45125,0.00098302651511792
-0.45,0.000987286114520792
-0.44875,0.00100001641354087
-0.4475,0.00101472396186921
-0.44625,0.00102403797259708
-0.445,0.00102142338160423
-0.44375,0.00100273573611767
-0.4425,0.000967215037712577
-0.44125,0.0009176982685082
-0.44,0.000860054688136573
-0.43875,0.000801972159631845
-0.4375,0.000751302375183981
-0.43625,0.000714309320301221
-0.435,0.000694270904063633
-0.43375,0.000690786705363313
-0.4325,0.000699888779527618
-0.43125,0.000714857187296709
-0.43,0.000727582634870833
-0.42875,0.000730261040933584
-0.4275,0.000717072410479526
-0.42625,0.000685423181274158
-0.425,0.000636453155747204
-0.42375,0.000574737906495214
-0.4225,0.000507278322343998
-0.42125,0.000441952908424518
-0.42,0.000385731718171402
-0.41875,0.000343089757475661
-0.4175,0.000315033594891133
-0.41625,0.000298928386174572
-0.415,0.000289077293607016
-0.41375,0.000277908389561566
-0.4125,0.000257581519073886
-0.41125,0.00022171244120419
-0.41,0.000166796475587219
-0.40875,9.29709339992243e-05
-0.4075,3.97416499638063e-06
-0.40625,-9.36430822206671e-05
-0.405,-0.000191901045615727
-0.40375,-0.000283119924695654
-0.4025,-0.000361600857068514
-0.40125,-0.000424817067827745
-0.4,-0.000473841542457689
-0.39875,-0.000512994630928074
-0.3975,-0.000548839730572285
-0.39625,-0.000588696663090796
-0.395,-0.000638929274682527
-0.39375,-0.000703397371247657
-0.3925,-0.000782472309053459
-0.39125,-0.000872834286641721
-0.39,-0.00096804857931384
-0.38875,-0.00105979582250818
-0.3875,-0.00113955068058872
-0.38625,-0.00120036448968884
-0.385,-0.00123830054011321
-0.38375,-0.00125316597915626
-0.3825,-0.00124843745375772
-0.38125,-0.00123047264623025
-0.38,-0.00120716396886898
-0.37875,-0.0011862534067474
-0.3775,-0.00117365990326916
-0.37625,-0.00117223964246805
-0.375,-0.00118127385742598
-0.37375,-0.00119674874655741
-0.3725,-0.00121233429738845
-0.37125,-0.00122088914794627
-0.37,-0.00121619891989662
-0.36875,-0.00119451744554483
-0.3675,-0.0011555021131553
-0.36625,-0.00110235791168997
-0.365,-0.00104123849788774
-0.36375,-0.00098004937711845
-0.3625,-0.000926840710498693
-0.36125,-0.000888091352933201
-0.36,-0.000867299204977491
-0.35875,-0.000864235331341721
-0.3575,-0.000875002325684796
-0.35625,-0.000892842292887672
-0.355,-0.000909544170992683
-0.35375,-0.000917202743200992
-0.3525,-0.000909934619330237
-0.35125,-0.000885106123724439
-0.35,-0.000843794902509006
-0.34875,-0.000790463450576625
-0.3475,-0.000731968739091887
-0.34625,-0.000676077062621274
-0.345,-0.000629743372647315
-0.34375,-0.00059754847810247
-0.3425,-0.000580694930271702
-0.34125,-0.000576779212623683
-0.34,-0.000580336255122629
-0.33875,-0.000584030488208237
-0.3375,-0.000580288022400055
-0.33625,-0.000563027185372926
-0.335,-0.000529039372312403
-0.33375,-0.000478670415840626
-0.3325,-0.000415708688440648
-0.33125,-0.000346579682869097
-0.33,-0.000279004816403085
-0.32875,-0.000220339378031334
-0.3275,-0.000175934738424157
-0.32625,-0.000147938765520242
-0.325,-0.000134824035062871
-0.32375,-0.000131706174131475
-0.3225,-0.000131359281442812
-0.32125,-0.000125756322731467
-0.32,-0.000107842598067009
-0.31875,-7.31125657844853e-05
-0.3175,-2.05815801167172e-05
-0.31625,4.70347583442829e-05
-0.315,0.000123889344521177
-0.31375,0.000202179026555548
-0.3125,0.000273740844161874
-0.31125,0.000331767524144031
-0.31,0.000372227010795441
-0.30875,0.000394628375966171
-0.3075,0.000401993199587641
-0.30625,0.000400086783014028
-0.305,0.0003960591201394
-0.30375,0.000396741231095356
-0.3025,0.000406987031487572
-0.30125,0.000428500247223856
-0.3,0.000459419580749823
-0.29875,0.000494679503633869
-0.2975,0.000527019170472925
-0.29625,0.000548470010874988
-0.295,0.000552065957200565
-0.29375,0.000533388022034603
-0.2925,0.000491547139890431
-0.29125,0.000429390269375645
-0.29,0.000352933682787704
-0.28875,0.000270147862493258
-0.2875,0.000189298817660003
-0.28625,0.000117189080644775
-0.285,5.77471433894189e-05
-0.28375,1.13169548781371e-05
-0.2825,-2.52542710749735e-05
-0.28125,-5.78241681930592e-05
-0.28,-9.36143201083252e-05
-0.27875,-0.000139537575450714
-0.2775,-0.000200544297755468
-0.27625,-0.00027840656383784
-0.275,-0.000371232202682182
-0.27375,-0.000473770859767762
-0.2725,-0.000578417291736631
-0.27125,-0.000676737255743235
-0.27,-0.000761222109332572
-0.26875,-0.000826843201274297
-0.2675,-0.000872002609953137
-0.26625,-0.00089869965592735
-0.265,-0.000911961152752704
-0.26375,-0.000918675940747589
-0.2625,-0.000926017241497138
-0.26125,-0.000939753009189529
-0.26,-0.000962858473258219
-0.25875,-0.000994786450797977
-0.2575,-0.0010315343116961
-0.25625,-0.00106645267607315
-0.255,-0.00109164546012444
-0.25375,-0.00109971298186277
-0.2525,-0.00108544351018043
-0.25125,-0.00104701039952767
-0.25,-0.000986400459308651
-0.24875,-0.000909055164892174
-0.2475,-0.000822850207437243
-0.24625,-0.000736582458118346
-0.245,-0.000658224135806353
-0.24375,-0.000593338582499755
-0.2425,-0.000544058331958985
-0.24125,-0.000508841660611211
-0.24,-0.000483002436963546
-0.23875,-0.000459887160607614
-0.2375,-0.000432493468844967
-0.23625,-0.000395187062716524
-0.235,-0.000345070120033409
-0.23375,-0.000282653515711768
-0.2325,-0.000211740194401998
-0.23125,-0.000138619595640501
-0.23,-7.07318888143395e-05
-0.22875,-1.5019681392389e-05
-0.2275,2.36847175383728e-05
-0.22625,4.38223060860959e-05
-0.225,4.75346258006874e-05
-0.22375,4.02983019277549e-05
-0.2225,2.98654852414175e-05
-0.22125,2.46882129371958e-05
-0.22,3.21251293852711e-05
-0.21875,5.68649805686899e-05
-0.2175,9.99742090314151e-05
-0.21625,0.000158748546355489
-0.215,0.000227315238448879
-0.21375,0.000297838331916063
-0.2125,0.000362137686670365
-0.21125,0.000413417755569756
-0.21,0.000447690631254049
-0.20875,0.00046453949670867
-0.2075,0.000467087042592266
-0.20625,0.000461226066880409
-0.205,0.000454262178124752
-0.20375,0.000453214135328248
-0.2025,0.000463161939038572
-0.20125,0.000486079592939185
-0.2,0.000520420940017675
-0.19875,0.000561472920727002
-0.1975,0.000602349649013757
-0.19625,0.000635460308000541
-0.195,0.000654195870917373
-0.19375,0.00065444649533096
-0.1925,0.000635555040268179
-0.19125,0.00060049496223516
-0.19,0.000555279674350215
-0.18875,0.000507730129185758
-0.1875,0.00046580831954947
-0.18625,0.000435863376357359
-0.185,0.00042123995455452
-0.18375,0.000421596735191841
-0.1825,0.000433026601315961
-0.18125,0.000448878321490715
-0.18,0.000461120994287396
-0.17875,0.000462031885257611
-0.1775,0.000445856467011569
-0.17625,0.0004100240423452
-0.175,0.000355631504252173
-0.17375,0.000287136826309959
