t,low_f
-5.12,-0.0330285824258923
-5.11875,-0.0311600771691549
-5.1175,-0.0290083341518995
-5.11625,-0.0266492679785481
-5.115,-0.0241549378110274
-5.11375,-0.021590001312359
-5.1125,-0.0190096644385989
-5.11125,-0.0164591731726842
-5.11,-0.0139746422261292
-5.10875,-0.0115848683867808
-5.1075,-0.00931362587653499
-5.10625,-0.00718180439702651
-5.105,-0.005208810375774
-5.10375,-0.00341295287656455
-5.1025,-0.00181086208628382
-5.10125,-0.000416159513982593
-5.1,0.000762315311077503
-5.09875,0.00172228461929851
-5.0975,0.00246927087125425
-5.09625,0.00301683799893742
-5.095,0.0033856689145154
-5.09375,0.00360159774717582
-5.0925,0.00369288456159431
-5.09125,0.0036871590792159
-5.09,0.00360861521985999
-5.08875,0.00347605533188067
-5.0875,0.00330213866393945
-5.08625,0.00309383867053858
-5.085,0.00285389290719608
-5.08375,0.00258293939045896
-5.0825,0.00228192235643533
-5.08125,0.00195421327535194
-5.08,0.00160690724297035
-5.07875,0.00125099835568172
-5.0775,0.000900448995540987
-5.07625,0.000570374583005604
-5.075,0.00027469943834449
-5.07375,2.37984346035187e-05
-5.0725,-0.000177267087314482
-5.07125,-0.000329460853396508
-5.07,-0.000439312322819599
-5.06875,-0.00051744834288199
-5.0675,-0.000576398647204651
-5.06625,-0.000628046721869921
-5.065,-0.000681234868730557
-5.06375,-0.000740086067654741
-5.0625,-0.000803431335146321
-5.06125,-0.000865419005979324
-5.06,-0.000917134016263808
-5.05875,-0.000948906926684466
-5.0575,-0.000952838279916931
-5.05625,-0.000924928822600547
-5.055,-0.000866274721130857
-5.05375,-0.000783092949217015
-5.0525,-0.000685663395266738
-5.05125,-0.00058643731328859
-5.05,-0.000497643832767775
-5.04875,-0.000428857684045584
-5.0475,-0.000385098611927223
-5.04625,-0.00036593481222062
-5.045,-0.000365768495856217
-5.04375,-0.000375195166639621
-5.0425,-0.000383159454641221
-5.04125,-0.000379493545487133
-5.04,-0.000357269566153848
-5.03875,-0.000314374977799392
-5.0375,-0.000253955360732002
-5.03625,-0.000183714117216665
-5.035,-0.000114280776954759
-5.03375,-5.6952225712347e-05
-5.0325,-2.12228654348201e-05
-5.03125,-1.265447361984e-05
-5.03,-3.16178210492988e-05
-5.02875,-7.31916880503271e-05
-5.0275,-0.000128194147948221
-5.02625,-0.000185116132037829
-5.025,-0.000232593644444241
-5.02375,-0.000261896066429358
-5.0225,-0.000268816760430823
-5.02125,-0.000254506000663643
-5.02,-0.000225126463142848
-5.01875,-0.000190488987513044
-5.0175,-0.000161947416122245
-5.01625,-0.000149925253079183
-5.015,-0.00016158944648676
-5.01375,-0.00019923923777085
-5.0125,-0.000259797629032114
-5.01125,-0.000335475907470867
-5.01,-0.000415434183236541
-5.00875,-0.000488117057646531
-5.0075,-0.000543793387459134
-5.00625,-0.000576694906062904
-5.005,-0.000586215104460687
-5.00375,-0.00057693383898504
-5.0025,-0.000557554482155691
-5.00125,-0.000539004815942239
-5,-0.000532036718538897
-4.99875,-0.000544793111757179
-4.9975,-0.000580917992822152
-4.99625,-0.000638683431945382
-4.995,-0.000711308723885455
-4.99375,-0.000788359064682591
-4.9925,-0.000857941540740888
-4.99125,-0.000909275532092642
-4.99,-0.000935058123655947
-4.98875,-0.000933029408629211
-4.9875,-0.000906387360764701
-4.98625,-0.000863049378060482
-4.985,-0.000813976228948414
-4.98375,-0.000770865865383146
-4.9825,-0.000743639337226256
-4.98125,-0.00073827657901963
-4.98,-0.000755536578996971
-4.97875,-0.000790845395150976
-4.9775,-0.00083532471042633
-4.97625,-0.000877729724908396
-4.975,-0.000906928600255964
-4.97375,-0.000914392934831079
-4.9725,-0.000896079289162264
-4.97125,-0.00085324278700079
-4.97,-0.000792070259708049
-4.96875,-0.000722299262319427
-4.9675,-0.000655108181611457
-4.96625,-0.00060065327805418
-4.965,-0.000565767508176904
-4.96375,-0.000552385215510857
-4.9625,-0.00055707529177556
-4.96125,-0.000571750624155271
-4.96,-0.000585376243888043
-4.95875,-0.000586352051164224
-4.9575,-0.000565090188802788
-4.95625,-0.00051617269371585
-4.955,-0.000439550058709458
-4.95375,-0.000340553048440117
-4.9525,-0.000228810594576349
-4.95125,-0.000116326932819298
-4.95,-1.50546253862526e-05
-4.94875,6.55653951181209e-05
-4.9475,0.000120520201520491
-4.94625,0.000150126718744505
-4.945,0.000159747726334019
-4.94375,0.000158435855566933
-4.9425,0.00015678568247955
-4.94125,0.000164412157287285
-4.94,0.000187628746556727
-4.93875,0.000227916088504099
-4.9375,0.000281530857146847
-4.93625,0.000340258469149722
-4.935,0.000393093522358517
-4.93375,0.000428539713947736
-4.9325,0.000437107316947176
-4.93125,0.000413452175825412
-4.93,0.000357623749677603
-4.92875,0.000275139576459103
-4.9275,0.000175913432160107
-4.92625,7.22698815999014e-05
-4.925,-2.35814887718104e-05
-4.92375,-0.000102073456347408
-4.9225,-0.00015818600834569
-4.92125,-0.000192273303376775
-4.92,-0.000209705983830226
-4.91875,-0.000219496607623053
-4.9175,-0.00023219266902709
-4.91625,-0.000257415352531015
-4.915,-0.000301563413696229
-4.91375,-0.000366247961842885
-4.9125,-0.000447837971399138
-4.91125,-0.000538180439536803
-4.91,-0.000626314808659328
-4.90875,-0.000700853282445908
-4.9075,-0.000752539499840316
-4.90625,-0.000776365483031824
-4.905,-0.000772711003425111
-4.90375,-0.000747289175728144
-4.9025,-0.000710002011169666
-4.90125,-0.000672965143702697
-4.9,-0.000648042520806603
-4.89875,-0.000644366035867614
-4.8975,-0.000666417409251766
-4.89625,-0.000713140602128542
-4.895,-0.000778252782723602
-4.89375,-0.000851636709574232
-4.8925,-0.000921530484379864
-4.89125,-0.000977091904524743
-4.89,-0.00101075994564186
-4.88875,-0.00101982168662953
-4.8875,-0.00100683775982924
-4.88625,-0.000978925215999191
-4.885,-0.000946114492957441
-4.88375,-0.000919089823290232
-4.8825,-0.000906737371211895
-4.88125,-0.000914057990740186
-4.88,-0.000940973136664941
-4.87875,-0.000982297733843315
-4.8775,-0.00102884268736776
-4.87625,-0.00106940593771658
-4.875,-0.0010932721006506
-4.87375,-0.00109267897392456
-4.8725,-0.00106463178309117
-4.87125,-0.00101162300143681
-4.87,-0.000941166044589482
-4.86875,-0.000864321536425727
-4.8675,-0.000793506482586281
-4.86625,-0.000739967004427773
-4.865,-0.000711433606889623
-4.86375,-0.000710521194057785
-4.8625,-0.000734248733717637
-4.86125,-0.000774739164780455
-4.86,-0.000820919529649587
-4.85875,-0.000860898931832314
-4.8575,-0.000884548366940769
-4.85625,-0.000885671892502969
-4.855,-0.000863229958014078
-4.85375,-0.000821383214889986
-4.8525,-0.000768445284663709
-4.85125,-0.000714996627261951
-4.85,-0.00067149899807585
-4.84875,-0.000645885215498653
-4.8475,-0.000641699926880444
-4.84625,-0.000657255936704998
-4.845,-0.000685970029689913
-4.84375,-0.000717759871266187
-4.8425,-0.000741219769987504
-4.84125,-0.000746155243725695
-4.84,-0.00072590219346688
-4.83875,-0.000678843792921687
-4.8375,-0.000608783070793098
-4.83625,-0.000524172134443196
-4.835,-0.000436413406548584
-4.83375,-0.000357541038625039
-4.8325,-0.000297709368941084
-4.83125,-0.000263049672725099
-4.83,-0.00025442511203472
-4.82875,-0.000267356424049553
-4.8275,-0.000293081835890375
-4.82625,-0.00032051555002382
-4.825,-0.000338734207918622
-4.82375,-0.000339459332517506
-4.8225,-0.000318919206973774
-4.82125,-0.000278638536278008
-4.82,-0.000225048038070136
-4.81875,-0.000168079782326828
-4.8175,-0.000119033382568248
-4.81625,-8.80949704513414e-05
-4.815,-8.2032596753213e-05
-4.81375,-0.00010263393623092
-4.8125,-0.000146260973071007
-4.81125,-0.000204579646781827
-4.81,-0.000266281575030622
-4.80875,-0.000319469858330569
-4.8075,-0.000354222612288989
-4.80625,-0.000364716124683981
-4.805,-0.00035037431590098
-4.80375,-0.000315829718357413
-4.8025,-0.000269800129371147
-4.80125,-0.000223141648832786
-4.8,-0.000186422085737664
-4.79875,-0.000167492589421168
-4.7975,-0.000169633775675443
-4.79625,-0.000190738306176058
-4.795,-0.000223690369126374
-4.79375,-0.000257820231243225
-4.7925,-0.000281145114514989
-4.79125,-0.000282964372845843
-4.79,-0.000256222219462335
-4.78875,-0.000199046725742254
-4.7875,-0.000115128750134702
-4.78625,-1.29502447660239e-05
-4.785,9.59181454406115e-05
-4.78375,0.000199140883896679
-4.7825,0.000286134548809686
-4.78125,0.000350215442386359
-4.78,0.000389848659026695
-4.77875,0.000408728471391346
-4.7775,0.000414728897252799
-4.77625,0.000417961760245776
-4.775,0.000428313947639054
-4.77375,0.000452996574924581
-4.7725,0.000494721700661731
-4.77125,0.000550954526455055
-4.77,0.000614343895127185
-4.76875,0.00067416151686459
-4.7675,0.000718463062058192
-4.76625,0.000736588532656655
-4.765,0.00072147846433184
-4.76375,0.000671242074911147
-4.7625,0.000589606465873691
-4.76125,0.000485192316673806
-4.76,0.00036979930205458
-4.75875,0.00025602443210084
-4.7575,0.000154689975292754
-4.75625,7.26900564298324e-05
-4.755,1.17884192831602e-05
-4.75375,-3.14099432289659e-05
-4.7525,-6.44068934316717e-05
-4.75125,-9.69311939630857e-05
-4.75,-0.000138569116291078
-4.74875,-0.000196380994548426
-4.7475,-0.000273078639767434
-4.74625,-0.000366223251826869
-4.745,-0.000468602093078769
-4.74375,-0.000569662825710001
-4.7425,-0.000657718975595567
-4.74125,-0.000722494201097244
-4.74,-0.000757417647991838
-4.73875,-0.000761083604179633
-4.7375,-0.000737549313113192
-4.73625,-0.000695490573969446
-4.735,-0.000646442582261871
-4.73375,-0.000602442051776085
-4.7325,-0.000573505062031615
-4.73125,-0.000565506131051661
-4.73,-0.000578984569792094
-4.72875,-0.00060913997535776
-4.7275,-0.00064696801169918
-4.72625,-0.000681288572437532
-4.725,-0.000701280623573085
-4.72375,-0.000698975425599914
-4.7225,-0.000671086283323817
-4.72125,-0.000619736658507779
-4.72,-0.000552000570530811
-4.71875,-0.000478436368909878
-4.7175,-0.00041090646397994
-4.71625,-0.000360070393467038
-4.715,-0.000333077249815386
-4.71375,-0.000332017654952429
-4.7125,-0.000353497875199293
-4.71125,-0.00038938330935775
-4.71,-0.000428524078556081
-4.70875,-0.000459136219800335
-4.7075,-0.000471357125016775
-4.70625,-0.000459363151689649
-4.705,-0.000422520359689689
-4.70375,-0.000365354839924452
-4.7025,-0.000296446128098437
-4.70125,-0.000226503673403376
-4.7,-0.000165971354427185
-4.69875,-0.000122640096861954
-4.6975,-9.98431540070966e-05
-4.69625,-9.56869657263866e-05
-4.695,-0.000103466285779672
-4.69375,-0.000113133885359445
-4.6925,-0.000113531565863385
-4.69125,-9.49456207661341e-05
-4.69,-5.13989180226768e-05
-4.68875,1.79014226925001e-05
-4.6875,0.000108278842889374
-4.68625,0.000210440473118972
-4.685,0.000312241985849956
-4.68375,0.000401051929217811
-4.6825,0.000466284632496703
-4.68125,0.000501538810632355
-4.68,0.000505818716262135
-4.67875,0.000483577881937911
-4.6775,0.000443632085363786
-4.67625,0.000397182701498979
-4.675,0.000355325909760569
-4.67375,0.000326584000282395
-4.6725,0.00031507296411773
-4.67125,0.000319746913583088
-4.67,0.000334814261896965
-4.66875,0.000351152512016086
-4.6675,0.000358433151009654
-4.66625,0.00034756936341679
-4.665,0.000312958013428715
-4.66375,0.000253954492131098
-4.6625,0.00017522073858012
-4.66125,8.59054480724436e-05
-4.66,-2.14800232239655e-06
-4.65875,-7.68292031963135e-05
-4.6575,-0.000128332473986854
-4.65625,-0.000151257102007365
-4.655,-0.000145713975798897
-4.65375,-0.00011723659036733
-4.6525,-7.56073851057483e-05
-4.65125,-3.28623401845587e-05
-4.65,-8.21343990633791e-07
-4.64875,1.13725560952032e-05
-4.6475,-8.71802104219733e-07
-4.64625,-3.675819838149e-05
-4.645,-9.04564168783139e-05
-4.64375,-0.000152517201402497
-4.6425,-0.00021206035175326
-4.64125,-0.000259304982159068
-4.64,-0.000287858257791939
-4.63875,-0.000296180810090912
-4.6375,-0.000287904655010871
-4.63625,-0.000271020436327887
-4.635,-0.000256156656104727
-4.63375,-0.000254264370369085
-4.6325,-0.00027414296318857
-4.63125,-0.000320373564002066
-4.63,-0.000392181933584076
-4.62875,-0.000483484723519996
-4.6275,-0.000584065015637068
-4.62625,-0.000681628117785222
-4.625,-0.00076435099835366
-4.62375,-0.000823375691363038
-4.6225,-0.000854626806060102
-4.62125,-0.000859521255454762
-4.62,-0.000844490627025065
-4.61875,-0.000819500719037766
-4.6175,-0.000795863030568447
-4.61625,-0.000783730518691991
-4.615,-0.000789810273058121
-4.61375,-0.000815855150852835
-4.6125,-0.000858291337121031
-4.61125,-0.00090902024563165
-4.61,-0.000957198343159107
-4.60875,-0.000991655339947497
-4.6075,-0.00100345146101697
-4.60625,-0.000987950799787734
-4.605,-0.00094589053719296
-4.60375,-0.000883254238753201
-4.6025,-0.00081006956726582
-4.60125,-0.000738397564593872
-4.6,-0.00067986360409738
-4.59875,-0.00064321583172013
-4.5975,-0.000632487077152084
-4.59625,-0.000646208413922288
-4.595,-0.000677817354662261
-4.59375,-0.000717129027623703
-4.5925,-0.000752578376241089
-4.59125,-0.000773798156614364
-4.59,-0.000773944554271531
-4.58875,-0.000751186734892013
-4.5875,-0.000709038619045566
-4.58625,-0.000655553249450756
-4.585,-0.000601602894449469
-4.58375,-0.000558556577185725
-4.5825,-0.000535789293449601
-4.58125,-0.000538588335884287
-4.58,-0.000566976895294759
-4.57875,-0.00061570860146921
-4.5775,-0.000675382001161166
-4.57625,-0.000734431908244152
-4.575,-0.000781618572368256
-4.57375,-0.000808472825144099
-4.5725,-0.000811082890361605
-4.57125,-0.000790792188520294
-4.57,-0.000753726399159564
-4.56875,-0.000709331319748935
-4.5675,-0.000668214091184056
-4.56625,-0.00063967856788735
-4.565,-0.000629484870308343
-4.56375,-0.000638389950149954
-4.5625,-0.000661819821012273
-4.56125,-0.00069070810702826
-4.56,-0.000713304618559845
-4.55875,-0.000717614894043812
-4.5575,-0.000693969009729217
-4.55625,-0.000637095304753772
-4.555,-0.000547184310442064
-4.55375,-0.000429760344952616
-4.5525,-0.000294486368357312
-4.55125,-0.000153169553921689
-4.55,-1.73174768491792e-05
-4.54875,0.000104268695564099
-4.5475,0.000207289808081016
-4.54625,0.00029269089030863
-4.545,0.000366214571186407
-4.54375,0.000436903803552263
-4.5425,0.000514853486859366
-4.54125,0.000608659505176774
-4.54,0.000723165447373731
-4.53875,0.000858086028739824
-4.5375,0.00100780660149487
-4.53625,0.00116231494137251
-4.535,0.00130902792207103
-4.53375,0.00143519312747813
-4.5325,0.00153042564806162
-4.53125,0.0015888140480144
-4.53,0.00161008088525738
-4.52875,0.00159955294127315
-4.5275,0.00156700033734999
-4.52625,0.00152459313621038
-4.525,0.00148435721787959
-4.52375,0.00145567200851177
-4.5225,0.00144342455794606
-4.52125,0.00144725218504599
-4.52,0.00146195955139207
-4.51875,0.00147893406338067
-4.5175,0.00148827029666475
-4.51625,0.00148121145833628
-4.515,0.00145237409535548
-4.51375,0.00140119659164758
-4.5125,0.00133226050300638
-4.51125,0.00125445163594676
-4.51,0.00117916050030716
-4.50875,0.00111786488225058
-4.5075,0.0010795968416486
-4.50625,0.00106891513092919
-4.505,0.0010848940058912
-4.50375,0.00112130946032675
-4.5025,0.00116789641300088
-4.50125,0.00121240666635004
-4.5,0.00124311283378748
-4.49875,0.00125126627743415
-4.4975,0.00123293074944258
-4.49625,0.00118974847027716
-4.495,0.00112850470180466
-4.49375,0.00105962951455029
-4.4925,0.000994932163786368
-4.49125,0.000945006116588212
-4.49,0.000916895248796997
-4.48875,0.000912603977146997
-4.4875,0.000928769655760593
-4.48625,0.000957474215460355
-4.485,0.000987969660995614
-4.48375,0.00100900072434641
-4.4825,0.00101128231122014
-4.48125,0.000989560711768717
-4.48,0.00094374109698121
-4.47875,0.000878837201601677
-4.4775,0.000803804816975256
-4.47625,0.000729511208046634
-4.475,0.000666227777832959
-4.47375,0.000621194108706167
-4.4725,0.000596867769659708
-4.47125,0.000590283452061488
-4.47,0.000593594197431025
-4.46875,0.000595607414816662
-4.4675,0.00058401934496344
-4.46625,0.000547951484014869
-4.465,0.000480252213086117
-4.46375,0.000379003993188625
-4.4625,0.000247887341372913
-4.46125,9.53695601641953e-05
-4.46,-6.7084355010411e-05
-4.45875,-0.00022744089548469
-4.4575,-0.000375670676630486
-4.45625,-0.000505844616152566
-4.455,-0.000617234462975932
-4.45375,-0.000714222056591658
-4.4525,-0.000805130456616222
-4.45125,-0.000900239483485168
-4.45,-0.00100933953385983
-4.44875,-0.00113932040527662
-4.4475,-0.00129237944035297
-4.44625,-0.00146529491977412
-4.445,-0.00164989873645326
-4.44375,-0.00183460961206007
-4.4425,-0.00200672774462925
-4.44125,-0.00215504053339148
-4.44,-0.00227213468671104
-4.43875,-0.00235583054837381
-4.4375,-0.00240943406854228
-4.43625,-0.00244084632057371
-4.435,-0.00246076750772776
-4.43375,-0.00248031959297942
-4.4325,-0.00250853568605702
-4.43125,-0.00255029116716741
-4.43,-0.00260519511806572
-4.42875,-0.00266768423017192
-4.4275,-0.00272825340611446
-4.42625,-0.00277556326845195
-4.425,-0.00279902231798682
-4.42375,-0.00279127611585788
-4.4225,-0.00274997825434803
-4.42125,-0.00267842539731324
-4.42,-0.00258499692040198
-4.41875,-0.00248159445777466
-4.4175,-0.00238137962150232
-4.41625,-0.00229620828333863
-4.415,-0.00223430221461079
-4.41375,-0.00219872145056096
-4.4125,-0.00218698743727135
-4.41125,-0.00219188814586805
-4.41,-0.00220326582130779
-4.40875,-0.00221044619846745
-4.4075,-0.00220480690169795
-4.40625,-0.00218185956412209
-4.405,-0.00214232472012363
-4.40375,-0.00209200630516211
-4.4025,-0.00204058343885157
-4.40125,-0.00199958715893113
-4.4,-0.00197992035436011
-4.39875,-0.00198941970218776
-4.3975,-0.00203104377238121
-4.39625,-0.00210213231747214
-4.395,-0.0021948699113238
-4.39375,-0.00229781486361071
-4.3925,-0.0023981955412812
-4.39125,-0.00248452696635077
-4.39,-0.0025489461314401
-4.38875,-0.002588681252047
-4.3875,-0.00260634497471401
-4.38625,-0.00260908410458694
-4.385,-0.00260681670493436
-4.38375,-0.00260987807627118
-4.3825,-0.00262652577292067
-4.38125,-0.00266088259031181
-4.38,-0.00271183710819718
-4.37875,-0.00277314194342397
-4.3775,-0.00283464325047465
-4.37625,-0.00288438336759799
-4.375,-0.00291117464405429
-4.37375,-0.00290707452038581
-4.3725,-0.00286913570116538
-4.37125,-0.0028000164525837
-4.37,-0.00270739526671916
-4.36875,-0.00260238779120945
-4.3675,-0.00249726782333728
-4.36625,-0.0024028974507154
-4.365,-0.00232641474459916
-4.36375,-0.00226974571051558
-4.3625,-0.00222928761501342
-4.36125,-0.00219678882552121
-4.36,-0.00216121896732815
-4.35875,-0.00211127679249248
-4.3575,-0.00203801498074954
-4.35625,-0.00193694063694951
-4.355,-0.00180907078094322
-4.35375,-0.00166076376590399
-4.3525,-0.00150245864465328
-4.35125,-0.00134659884819415
-4.35,-0.00120510586191587
-4.34875,-0.00108691012272146
-4.3475,-0.00099612777732014
-4.34625,-0.000931324726261006
-4.345,-0.000885992420321837
-4.34375,-0.00085008732840834
-4.3425,-0.000812327626510515
-4.34125,-0.000762791841026436
-4.34,-0.000695213881907546
-4.33875,-0.000608393494322733
-4.3375,-0.000506421566966084
-4.33625,-0.000397762338009282
-4.335,-0.000293431078895941
-4.33375,-0.000204596116875588
-4.3325,-0.000140061237501754
-4.33125,-0.000104208883673883
-4.33,-9.59210709000859e-05
-4.32875,-0.000108714312861275
-4.3275,-0.000132018160938838
-4.32625,-0.000153334051772046
-4.325,-0.000160865863100997
-4.32375,-0.000146046407053119
-4.3225,-0.000105330633333397
-4.32125,-4.08393987999619e-05
-4.32,4.02035578838007e-05
-4.31875,0.000127046054744295
-4.3175,0.00020769272804322
-4.31625,0.000271493553389366
-4.315,0.000311482169337342
-4.31375,0.000325893743730299
-4.3125,0.00031851504001132
-4.31125,0.000297842586104642
-4.31,0.000275254581022225
-4.30875,0.00026254419919749
-4.3075,0.000269324632234705
-4.30625,0.000300936429810189
-4.305,0.000357375067002104
-4.30375,0.000433423967631024
-4.3025,0.000519870191814141
-4.30125,0.00060553355233227
-4.3,0.000679746769113954
-4.29875,0.000734780350841018
-4.2975,0.000767624978677423
-4.29625,0.000780691745083694
-4.295,0.000781305390463087
-4.29375,0.000780136314991005
-4.2925,0.000788876719946156
-4.29125,0.00081761817974847
-4.29,0.000872539472437354
-4.28875,0.000954486394950591
-4.2875,0.00105874237440009
-4.28625,0.00117594779706788
-4.285,0.00129393313645634
-4.28375,0.00140014062756404
-4.2825,0.00148417792596966
-4.28125,0.00153992137694753
-4.28,0.0015666542120011
-4.27875,0.0015690084336623
-4.2775,0.0015557813852331
-4.27625,0.00153788212990885
-4.275,0.00152580028384156
-4.27375,0.00152715497328443
-4.2725,0.00154494243008914
-4.27125,0.00157690035965265
-4.27,0.00161605515057616
-4.26875,0.00165226232568842
-4.2675,0.0016744401079155
-4.26625,0.0016730881461439
-4.265,0.00164254180288623
-4.26375,0.00158240090149927
-4.2625,0.0014977960015118
-4.26125,0.00139847501062782
-4.26,0.00129691910934122
-4.25875,0.00120583958434047
-4.2575,0.00113557157524044
-4.25625,0.00109199633558034
-4.255,0.00107550086803728
-4.25375,0.00108114577872297
-4.2525,0.00109990794344885
-4.25125,0.0011207246981376
-4.25,0.00113297681086054
-4.24875,0.001128905683662
-4.2475,0.00110538278490682
-4.24625,0.00106459988028198
-4.245,0.00101356202938303
-4.24375,0.000962531371184155
-4.2425,0.000922727106097662
-4.24125,0.000903740893243858
-4.24,0.000911278036436131
-4.23875,0.000945800344848513
-4.2375,0.00100235576819209
-4.23625,0.00107153886372018
-4.235,0.00114133888737588
-4.23375,0.00119954801728239
-4.2325,0.00123627664016958
-4.23125,0.00124600175488835
-4.23,0.00122864399580638
-4.22875,0.00118945048198817
-4.2275,0.00113776048529685
-4.22625,0.0010849138729007
-4.225,0.00104169840425521
-4.22375,0.00101589281332532
-4.2225,0.00101051784895172
-4.22125,0.0010232048927953
-4.22,0.00104674287406214
-4.21875,0.00107061384571761
-4.2175,0.00108322054265056
-4.21625,0.00107440210500061
-4.215,0.00103769279370689
-4.21375,0.000971768335834913
-4.2125,0.000880748658855094
-4.21125,0.000773342425816426
-4.21,0.000661040496089888
-4.20875,0.000555703268709061
-4.2075,0.000467045993062872
-4.20625,0.000400638583511952
-4.205,0.000356916230975102
-4.20375,0.000331365719286099
-4.2025,0.000315753772200115
-4.20125,0.000300126361879685
-4.2,0.000275220230271497
-4.19875,0.000234789683832074
-4.1975,0.000177278147969552
-4.19625,0.000106415720376578
-4.195,3.06353832255333e-05
-4.19375,-3.85369572314737e-05
-4.1925,-8.88085407272934e-05
-4.19125,-0.000109699890696175
-4.19,-9.47724933003594e-05
-4.18875,-4.29434908029089e-05
-4.1875,4.13769056668095e-05
-4.18625,0.000149255684225492
-4.185,0.000269069972481205
-4.18375,0.000388879726669566
-4.1825,0.000498892550751237
-4.18125,0.000593453754230638
-4.18,0.000672067963854821
-4.17875,0.000739241517784528
-4.1775,0.000803231485936831
-4.17625,0.00087396813815848
-4.175,0.000960556429406459
-4.17375,0.00106892019300983
-4.1725,0.00120018977670065
-4.17125,0.00135021069062524
-4.17,0.00151020064854212
-4.16875,0.00166834783513271
-4.1675,0.00181205093312555
-4.16625,0.0019304023392936
-4.165,0.00201638162007795
-4.16375,0.00206822239326397
-4.1625,0.0020896407621551
-4.16125,0.00208892459951822
-4.16,0.00207709729062332
-4.15875,0.00206550172155902
-4.1575,0.00206330464047227
-4.15625,0.00207552830180732
-4.155,0.00210209213496396
-4.15375,0.00213801711622196
-4.1525,0.00217465231683769
-4.15125,0.0022016515512936
-4.15,0.00220934509440813
-4.14875,0.00219101804223985
-4.1475,0.00214453874548354
-4.14625,0.00207293457341074
-4.145,0.00198381858913984
-4.14375,0.00188782389798132
-4.1425,0.00179634886278813
-4.14125,0.00171906187597687
-4.14,0.00166175515324222
-4.13875,0.00162509350437997
-4.1375,0.00160451617583618
-4.13625,0.0015912228936017
-4.135,0.00157400045777316
-4.13375,0.00154156760144461
-4.1325,0.00148499574414957
-4.13125,0.00139965196154627
-4.13,0.00128618697439124
-4.12875,0.00115036871971221
-4.1275,0.00100184916396912
-4.12625,0.000852123654324665
-4.125,0.000712072325740588
-4.12375,0.000589626999397468
-4.1225,0.000488150144374389
-4.12125,0.000405901959048902
-4.12,0.000336629422722881
-4.11875,0.000271076831143889
-4.1175,0.000199123685104134
-4.11625,0.000112158574223083
-4.115,5.16754438422795e-06
-4.11375,-0.000121985997419037
-4.1125,-0.000264390161699063
-4.11125,-0.000413016779394091
-4.11,-0.000556541489300016
-4.10875,-0.000683705938185876
-4.1075,-0.000785725406351962
-4.10625,-0.000858147702724945
-4.105,-0.000901702735953754
-4.10375,-0.00092201071907142
-4.1025,-0.000928299031574243
-4.10125,-0.000931399853251663
-4.1,-0.000941379445857417
-4.09875,-0.000965279565600309
-4.0975,-0.00100551545799474
-4.09625,-0.00105932094711983
-4.095,-0.0011193300391592
-4.09375,-0.00117513762909048
-4.0925,-0.00121553911368807
-4.09125,-0.00123100543504912
-4.09,-0.00121581255882566
-4.08875,-0.00116928980525046
-4.0875,-0.00109593636044536
-4.08625,-0.00100447652394938
-4.085,-0.000906094960584074
-4.08375,-0.000812169709047469
-4.0825,-0.000731936954920838
-4.08125,-0.000670626748200937
-4.08,-0.000628529893574741
-4.07875,-0.000601183900502506
-4.0775,-0.000580586998864145
-4.07625,-0.000557182634344879
-4.075,-0.000522230824564302
-4.07375,-0.000470035918879375
-4.0725,-0.000399462445015226
-4.07125,-0.00031437810804731
-4.07,-0.000222997175672789
-4.06875,-0.00013632668267951
-4.0675,-6.60092925515483e-05
-4.06625,-2.19499987959073e-05
-4.065,-1.02381553423855e-05
-4.06375,-3.18740864525472e-05
-4.0625,-8.25892198443254e-05
-4.06125,-0.00015375049757421
-4.06,-0.000234138238808126
-4.05875,-0.000312263033975447
-4.0575,-0.000378741006870612
-4.05625,-0.00042814857111818
-4.055,-0.000459903138899686
-4.05375,-0.000478035037876591
-4.0525,-0.000489993685760123
-4.05125,-0.000504753250287857
-4.05,-0.000530560733899328
-4.04875,-0.000572794847523131
-4.0475,-0.000632464116279813
-4.04625,-0.00070571990042336
-4.045,-0.000784465573206161
-4.04375,-0.000857903612948679
-4.0425,-0.000914723487091245
-4.04125,-0.000945492468223541
-4.04,-0.000944679960936207
-4.03875,-0.000911798881254914
-4.0375,-0.000851433798090156
-4.03625,-0.000772239354569819
-4.035,-0.000685153710631914
-4.03375,-0.000601142566935747
-4.0325,-0.000528902785345598
-4.03125,-0.000473056830668204
-4.03,-0.00043328741721121
-4.02875,-0.000404589054073658
-4.0275,-0.000378536891209326
-4.02625,-0.000345308620571715
-4.025,-0.000296068222861406
-4.02375,-0.000225175920290649
-4.0225,-0.00013166303499502
-4.02125,-1.96309880434266e-05
-4.02,0.000102432780818051
-4.01875,0.000223212161601369
-4.0175,0.000330701231785648
-4.01625,0.000414542283627285
-4.015,0.000468059531781534
-4.01375,0.000489492392950072
-4.0125,0.000482153211249559
-4.01125,0.000453526707749296
-4.01,0.000413523420496952
-4.00875,0.000372219733566712
-4.0075,0.000337560853396878
-4.00625,0.000313595692649814
-4.005,0.00029968150226883
-4.00375,0.000290778493153825
-4.0025,0.000278684843029986
-4.00125,0.000253946961410042
-4,0.000208103877484822
-3.99875,0.000135800325431633
-3.9975,3.62466989211474e-05
-3.99625,-8.63399199552911e-05
-3.995,-0.000223384921958173
-3.99375,-0.000363529520410746
-3.9925,-0.000494826974707869
-3.99125,-0.000607124787516326
-3.99,-0.000694070912058755
-3.98875,-0.000754240341815266
-3.9875,-0.000791164330569684
-3.98625,-0.000812351464495952
-3.985,-0.000827543306619341
-3.98375,-0.000846514314078977
-3.9825,-0.000876837478368484
-3.98125,-0.000922136749160633
-3.98,-0.000981263800374952
-3.97875,-0.00104856678967805
-3.9775,-0.00111514882170614
-3.97625,-0.00117085424194869
-3.975,-0.00120659515646846
-3.97375,-0.00121648784477887
-3.9725,-0.00119924906917591
-3.97125,-0.00115852737786149
-3.97,-0.00110217463517228
-3.96875,-0.00104067248750126
-3.9675,-0.000985005963972538
-3.96625,-0.000944365948749399
-3.965,-0.000924181320736681
-3.96375,-0.000924969999151682
-3.9625,-0.000942274311932678
-3.96125,-0.000967653628824745
-3.96,-0.000990511567434844
-3.95875,-0.00100041074164448
-3.9575,-0.000989382949232249
-3.95625,-0.000953662149392079
-3.955,-0.00089441966980867
-3.95375,-0.000817408342976632
-3.9525,-0.000731682749319505
-3.95125,-0.000647664287999468
-3.95,-0.000574889878378143
-3.94875,-0.000519905772336021
-3.9475,-0.000484820293254573
-3.94625,-0.00046687002966734
-3.945,-0.000459062934524272
-3.94375,-0.000451731650991538
-3.9425,-0.000434697532841033
-3.94125,-0.000399607390419389
-3.94,-0.000341880527687117
-3.93875,-0.000261768966824836
-3.9375,-0.000164324344893413
-3.93625,-5.83691142180651e-05
-3.935,4.52816954365007e-05
-3.93375,0.000136037056875071
-3.9325,0.000205763905523668
-3.93125,0.000250521685658769
-3.93,0.000271366842318565
-3.92875,0.000274065425864619
-3.9275,0.000267818900837201
-3.92625,0.000263264895904616
-3.925,0.000270136232329193
-3.92375,0.000295099930656848
-3.9225,0.000340318854920652
-3.92125,0.000403061235367792
-3.92,0.00047635966743076
-3.91875,0.000550513197880329
-3.9175,0.000615147970181244
-3.91625,0.000661461647832121
-3.915,0.000684157788016646
-3.91375,0.000682588712651879
-3.9125,0.000660847759070235
-3.91125,0.000626838244191294
-3.91,0.000590533137974845
-3.90875,0.00056175321170156
-3.9075,0.000547929347026324
-3.90625,0.000552403128041631
-3.905,0.000573690204092803
-3.90375,0.000605819806706072
-3.9025,0.000639599805838761
-3.90125,0.000664542782809108
-3.9,0.000671112119730307
-3.89875,0.000652825754827624
-3.8975,0.000607706154364126
-3.89625,0.0005387251876155
-3.895,0.000453181969053193
-3.89375,0.00036117920908974
-3.8925,0.000273491508810782
-3.89125,0.000199249411664113
-3.89,0.000143984932727882
-3.88875,0.000108530183200999
-3.8875,8.89860579035599e-05
-3.88625,7.76796450813298e-05
-3.885,6.48762916940861e-05
-3.88375,4.09415845011032e-05
-3.8825,-1.46574361653277e-06
-3.88125,-6.56860676119253e-05
-3.88,-0.000150263802652633
-3.87875,-0.000249222733268478
-3.8775,-0.000353306468850695
-3.87625,-0.000451927791576441
-3.875,-0.000535453306886575
-3.87375,-0.000597312661581021
-3.8725,-0.00063539691510248
-3.87125,-0.00065242140244725
-3.87,-0.000655248272844737
-3.86875,-0.000653373493128828
-3.8675,-0.000656865250183814
-3.86625,-0.000674132555901834
-3.865,-0.000710018579954942
-3.86375,-0.000764694983562814
-3.8625,-0.000833608494588494
-3.86125,-0.00090844714393997
-3.86,-0.000978910342110135
-3.85875,-0.00103495255780783
-3.8575,-0.00106903035382086
-3.85625,-0.00107779742288783
-3.855,-0.00106282936241453
-3.85375,-0.00103027371305122
-3.8525,-0.000989580776690851
-3.85125,-0.000951580312439629
-3.85,-0.000926244310871902
-3.84875,-0.000920596662579972
-3.8475,-0.000937276676496229
-3.84625,-0.000974099359721612
-3.845,-0.00102466647306821
-3.84375,-0.00107986104361175
-3.8425,-0.00112993579979516
-3.84125,-0.00116677676965627
-3.84,-0.00118580110878552
-3.83875,-0.00118700335046166
-3.8375,-0.00117493932089429
-3.83625,-0.0011577335353366
-3.835,-0.00114534633589534
-3.83375,-0.00114740638887777
-3.8325,-0.00117102757896981
-3.83125,-0.00121912536554446
-3.83,-0.00128965755429986
-3.82875,-0.00137594237299941
-3.8275,-0.00146794179917052
-3.82625,-0.00155424731360733
-3.825,-0.00162439038619108
-3.82375,-0.00167096684564813
-3.8225,-0.00169104414078103
-3.82125,-0.00168653354672748
-3.82,-0.00166352695697715
-3.81875,-0.00163080340415006
-3.8175,-0.0015977915891393
-3.81625,-0.00157236857299963
-3.815,-0.0015589908306231
-3.81375,-0.00155763258192354
-3.8125,-0.00156377776673969
-3.81125,-0.00156942604102824
-3.81,-0.00156488783961715
-3.80875,-0.00154102576960944
-3.8075,-0.00149145893994789
-3.80625,-0.00141417158939071
-3.805,-0.00131212231699016
-3.80375,-0.00119277430267012
-3.8025,-0.00106672200232606
-3.80125,-0.000945689573583999
-3.8,-0.000840246534973478
-3.79875,-0.000757703371754768
-3.7975,-0.000700689921054374
-3.79625,-0.000666751464189894
-3.795,-0.00064900987620257
-3.79375,-0.000637718125216402
-3.7925,-0.000622413683279781
-3.79125,-0.000594244991234344
-3.79,-0.000547923291460797
-3.78875,-0.000482811983136929
-3.7875,-0.000402945090924595
-3.78625,-0.000316063245450925
-3.785,-0.000231905846261161
-3.78375,-0.000160069563954365
-3.7825,-0.000107856332872741
-3.78125,-7.86235337153523e-05
-3.78,-7.1052075035734e-05
-3.77875,-7.9476389726377e-05
-3.7775,-9.51616931443255e-05
-3.77625,-0.000108266730203882
-3.775,-0.000110113228245646
-3.77375,-9.52493477391256e-05
-3.7725,-6.27802215224212e-05
-3.77125,-1.66577682098473e-05
-3.77,3.50620145028486e-05
-3.76875,8.17868836533253e-05
-3.7675,0.000112496837510334
-3.76625,0.000118014711081023
-3.765,9.29425580370406e-05
-3.76375,3.67878980890852e-05
-3.7625,-4.59686016213146e-05
-3.76125,-0.00014682888123757
-3.76,-0.000255038810649217
-3.75875,-0.000359822262856298
-3.7575,-0.000452616969054758
-3.75625,-0.000528761823408207
-3.755,-0.000588226706411489
-3.75375,-0.000635286963495967
-3.7525,-0.000677297547863266
-3.75125,-0.000722828258858187
-3.75,-0.000779500109522149
-3.74875,-0.000851985588264914
-3.7475,-0.000940676235935122
-3.74625,-0.00104134988493152
-3.745,-0.00114587983686138
-3.74375,-0.00124380937988044
-3.7425,-0.00132449223266627
-3.74125,-0.00137936694563338
-3.74,-0.00140381612636996
-3.73875,-0.00139813445916895
-3.7375,-0.00136741964202847
-3.73625,-0.00132049515667197
-3.735,-0.00126811393431247
-3.73375,-0.0012207551872702
-3.7325,-0.0011864363453148
-3.73125,-0.00116905034288789
-3.73,-0.00116764020560551
-3.72875,-0.00117675085056587
-3.7275,-0.00118774028686733
-3.72625,-0.00119078431928077
-3.725,-0.00117718730343406
-3.72375,-0.00114147526365082
-3.7225,-0.00108273953300245
-3.72125,-0.00100492716633416
-3.72,-0.000916093181799326
-3.71875,-0.00082682759686419
-3.7175,-0.000748148418268286
-3.71625,-0.000689246289607281
-3.715,-0.000655578224111672
-3.71375,-0.000647778686166109
-3.7125,-0.000661625528415244
-3.71125,-0.000689017914454594
-3.71,-0.000719745557537981
-3.70875,-0.000743716689142057
-3.7075,-0.000753174349365365
-3.70625,-0.000744351168798645
-3.705,-0.000718156392883367
-3.70375,-0.00067980295618085
-3.7025,-0.000637535899082862
-3.70125,-0.000600728079344264
-3.7,-0.000577685426989629
-3.69875,-0.000573624509008853
-3.6975,-0.000589324102826521
-3.69625,-0.000620781281943951
-3.695,-0.000659913926829856
-3.69375,-0.000696134184337155
-3.6925,-0.000718495914308468
-3.69125,-0.000717988572999474
-3.69,-0.000689432475352394
-3.68875,-0.000632497478761325
-3.6875,-0.000551649842359248
-3.68625,-0.000455125171174075
-3.685,-0.000353170226613188
-3.68375,-0.000255866139583895
-3.6825,-0.000170959222000634
-3.68125,-0.000102212607190055
-3.68,-4.86889493468462e-05
-3.67875,-5.09998112864754e-06
-3.6775,3.68969392412522e-05
-3.67625,8.67208642530005e-05
-3.675,0.000152595409852046
-3.67375,0.000239506479593903
-3.6725,0.000347916386197305
-3.67125,0.000473527442146945
-3.67,0.000608068792484539
-3.66875,0.000740887426911608
-3.6675,0.000861051821380972
-3.66625,0.000959584155524225
-3.665,0.00103132497870584
-3.66375,0.0010759646852352
-3.6625,0.00109800975548767
-3.66125,0.00110573366580169
-3.66,0.00110934230047663
-3.65875,0.00111870141336518
-3.6575,0.00114111388366999
-3.65625,0.00117970157539771
-3.655,0.00123278238564873
-3.65375,0.00129431030613641
-3.6525,0.00135520124492097
-3.65125,0.00140527499420852
-3.65,0.00143547358875689
-3.64875,0.00143989690718524
-3.6475,0.00141715783283196
-3.64625,0.00137073103129935
-3.645,0.00130825693407629
-3.64375,0.00123997732713232
-3.6425,0.00117659879534162
-3.64125,0.00112701113457038
-3.64,0.00109640545839226
-3.63875,0.00108526805751054
-3.6375,0.00108944186824544
-3.63625,0.00110115491121111
-3.635,0.00111077204624527
-3.63375,0.00110895754096843
-3.6325,0.00108882240771011
-3.63125,0.00104754443069252
-3.63,0.000987053376160217
-3.62875,0.000913648777500538
-3.6275,0.000836672722492641
-3.62625,0.000766504917282029
-3.625,0.00071226818120317
-3.62375,0.000679766984502452
-3.6225,0.00067018388099318
-3.62125,0.000679825488041957
-3.62,0.000700893084827016
-3.61875,0.00072306326940604
-3.6175,0.00073559221490451
-3.61625,0.000729561253053844
-3.615,0.00069976573835654
-3.61375,0.000645779678283934
-3.6125,0.000571963849363001
-3.61125,0.000486465358432358
-3.61,0.00039943132693475
-3.60875,0.000320772035997173
-3.6075,0.000257949187662566
-3.60625,0.00021434112105775
-3.605,0.000188585778695889
-3.60375,0.000174985154706901
-3.6025,0.000164804431606457
-3.60125,0.000148196987212913
-3.6,0.000116409679215173
-3.59875,6.38027674781653e-05
-3.5975,-1.08158126282475e-05
-3.59625,-0.000103866478795163
-3.595,-0.000207719705982652
-3.59375,-0.000312282778340008
-3.5925,-0.000407149437651544
-3.59125,-0.000483878860129652
-3.59,-0.000537856365576996
-3.58875,-0.000569264186834474
-3.5875,-0.000582979622116296
-3.58625,-0.000587508818729497
-3.585,-0.000593202627147366
-3.58375,-0.000610066193538089
-3.5825,-0.000645586600273684
-3.58125,-0.000703089439542862
-3.58,-0.000781030311067242
-3.57875,-0.000873351383993526
-3.5775,-0.00097077933386179
-3.57625,-0.00106280035565542
-3.575,-0.00113993155422784
-3.57375,-0.00119577397469677
-3.5725,-0.00122832505837265
-3.57125,-0.00124025483340475
-3.57,-0.00123816458493889
-3.56875,-0.00123103979625508
-3.5675,-0.0012281860462863
-3.56625,-0.00123703439044159
-3.565,-0.00126131631558749
-3.56375,-0.00130007384366595
-3.5625,-0.00134773191416254
-3.56125,-0.00139517758080587
-3.56,-0.00143161290629517
-3.55875,-0.00144683195240382
-3.5575,-0.00143343232524187
-3.55625,-0.00138840691205153
-3.555,-0.00131372949899154
-3.55375,-0.00121587231741336
-3.5525,-0.00110443745496137
-3.55125,-0.000990176996290997
-3.55,-0.000882750578556158
-3.54875,-0.000788688701334838
-3.5475,-0.00071006137183923
-3.54625,-0.00064417112739157
-3.545,-0.00058429857145044
-3.54375,-0.000521314130141125
-3.5425,-0.000445848047063854
-3.54125,-0.000350576437438885
-3.54,-0.000232068252395065
-3.53875,-9.17222481355949e-05
-3.5375,6.43795341020408e-05
-3.53625,0.000226583715436692
-3.535,0.000383490433545601
-3.53375,0.000524173882631457
-3.5325,0.000640368312339342
-3.53125,0.000728107877593586
-3.53,0.00078842047829081
-3.52875,0.000826951810095657
-3.5275,0.000852645279503419
-3.52625,0.000875742985516348
-3.525,0.000905492443710539
-3.52375,0.000948078765139487
-3.5225,0.00100530553585548
-3.52125,0.00107431621617431
-3.52,0.0011483314832659
-3.51875,0.00121818571815375
-3.5175,0.0012743711989575
-3.51625,0.00130920416704389
-3.515,0.00131861840488159
-3.51375,0.00130313087637994
-3.5125,0.00126776140110245
-3.51125,0.00122096448449637
-3.51,0.00117280350296029
-3.50875,0.0011327131238106
-3.5075,0.00110733695368709
-3.50625,0.00109899156595881
-3.505,0.00110513845107308
-3.50375,0.00111892166139822
-3.5025,0.00113058672395002
-3.50125,0.00112950283925641
-3.5,0.00110643433964063
-3.49875,0.00105558836603011
-3.4975,0.00097593902577593
-3.49625,0.000871512746892475
-3.495,0.00075061047298012
-3.49375,0.000624155616721004
-3.4925,0.000503480109975957
-3.49125,0.000397997636125982
-3.49,0.000313322626096947
-3.48875,0.000250300813955286
-3.4875,0.000205116880524557
-3.48625,0.000170359173427553
-3.485,0.000136792684686024
-3.48375,9.55263200679878e-05
-3.4825,4.01446866704068e-05
-3.48125,-3.17076143979701e-05
-3.48,-0.000117688373277817
-3.47875,-0.000211188665397085
-3.4775,-0.000302703200175081
-3.47625,-0.000381867102257819
-3.475,-0.000439759568868913
-3.47375,-0.000470940067479235
-3.4725,-0.000474693794218241
-3.47125,-0.000455210726941283
-3.47,-0.000420740387916645
-3.46875,-0.000381947622566998
-3.4675,-0.000349764389309505
-3.46625,-0.000333129028970459
-3.465,-0.000337115110013349
-3.46375,-0.000361910615212678
-3.4625,-0.000402865786472988
-3.46125,-0.000451548532052091
-3.46,-0.000497575113368764
-3.45875,-0.000530872307394895
-3.4575,-0.00054388957090995
-3.45625,-0.000533213122166735
-3.455,-0.000500195424936887
-3.45375,-0.000450531034122287
-3.4525,-0.000392951380165759
-3.45125,-0.000337306894550011
-3.45,-0.000292384132779376
-3.44875,-0.000263927839789248
-3.4475,-0.000253365234950683
-3.44625,-0.000257543979630498
-3.445,-0.000269504990782232
-3.44375,-0.000280100935520988
-3.4425,-0.000280150222402371
-3.44125,-0.000262680943209141
-3.44,-0.000224711613092229
-3.43875,-0.000168110264076011
-3.4375,-9.93739200606418e-05
-3.43625,-2.84546733172976e-05
-3.435,3.311407770234e-05
-3.43375,7.44734725716723e-05
-3.4325,8.76443836986762e-05
-3.43125,6.91685860502617e-05
-3.43,2.07877187818635e-05
-3.42875,-5.09594081715588e-05
-3.4275,-0.000136090984894048
-3.42625,-0.000223217601072587
-3.425,-0.000301866785777258
-3.42375,-0.000364570365571692
-3.4225,-0.000408192181627113
-3.42125,-0.000434212271737856
-3.42,-0.000447999094856481
-3.41875,-0.000457288194776366
-3.4175,-0.000470159294378664
-3.41625,-0.000492901839672305
-3.415,-0.000528268125795253
-3.41375,-0.000574568338561215
-3.4125,-0.000625817322745191
-3.41125,-0.00067286431484208
-3.41,-0.00070526634321599
-3.40875,-0.000713551685911234
-3.4075,-0.000691381056677158
-3.40625,-0.000637057358292839
-3.405,-0.000554012490581648
-3.40375,-0.000450224351913255
-3.4025,-0.000336753808822896
-3.40125,-0.000225680290239495
-3.4,-0.000127790749462727
-3.39875,-5.04970864030872e-05
-3.3975,3.51769080320538e-06
-3.39625,3.66109421483937e-05
-3.395,5.54259694465079e-05
-3.39375,6.92593541291043e-05
-3.3925,8.78615233330812e-05
-3.39125,0.000119120382520863
-3.39,0.000167187357856871
-3.38875,0.000231512072735666
-3.3875,0.000306952692424172
-3.38625,0.000384844326274089
-3.385,0.000454778112457891
-3.38375,0.00050677613210942
-3.3825,0.00053343089386526
-3.38125,0.000531499654078623
-3.38,0.000502560335898883
-3.37875,0.000452610205901777
-3.3775,0.000390732400218366
-3.37625,0.00032709534360281
-3.375,0.000270675958336031
-3.37375,0.000227233085793308
-3.3725,0.000198050655377172
-3.37125,0.000179729557882546
-3.37,0.000164993732345208
-3.36875,0.000144291630610901
-3.3675,0.000107899969262965
-3.36625,4.81363701501631e-05
-3.365,-3.8821938632241e-05
-3.36375,-0.000151969581326491
-3.3625,-0.000285565755619448
-3.36125,-0.000430222555670467
-3.36,-0.000574754839876135
-3.35875,-0.000708444777965912
-3.3575,-0.000823235320566145
-3.35625,-0.000915305041890848
-3.355,-0.000985645891415908
-3.35375,-0.00103958495717388
-3.3525,-0.00108542971170103
-3.35125,-0.0011325098958624
-3.35,-0.00118896901042839
-3.34875,-0.00125977931627024
-3.3475,-0.0013454762288248
-3.34625,-0.00144191761730466
-3.345,-0.00154108406211575
-3.34375,-0.00163272925246978
-3.3425,-0.00170656822719908
-3.34125,-0.00175455166120292
-3.34,-0.00177266717811138
-3.33875,-0.00176181067270748
-3.3375,-0.00172757654784122
-3.33625,-0.00167909822795407
-3.335,-0.00162719470752865
-3.33375,-0.00158214467155904
-3.3325,-0.00155152658813593
-3.33125,-0.00153863956347884
-3.33,-0.00154189710937897
-3.32875,-0.00155530384517471
-3.3275,-0.00156987556264265
-3.32625,-0.00157571962101566
-3.325,-0.00156436399387128
-3.32375,-0.00153079190217454
-3.3225,-0.00147466289975235
-3.32125,-0.00140045994198617
-3.32,-0.00131661798576979
-3.31875,-0.00123386409406604
-3.3175,-0.00116306512118003
-3.31625,-0.00111297775837305
-3.315,-0.00108840459650576
-3.31375,-0.00108921025027203
-3.3125,-0.0011104043595403
-3.31125,-0.00114322316527116
-3.31,-0.00117697573439416
-3.30875,-0.00120130833636022
-3.3075,-0.00120840023596415
-3.30625,-0.00119454310587292
-3.305,-0.00116072743815004
-3.30375,-0.00111217836724325
-3.3025,-0.00105701940157678
-3.30125,-0.00100433690794259
-3.3,-0.000962001217329059
-3.29875,-0.000934721173737076
-3.2975,-0.000922826332127832
-3.29625,-0.000922076351109608
-3.295,-0.000924506645096342
-3.29375,-0.000920113055428578
-3.2925,-0.000899057226939606
-3.29125,-0.000853935920118796
-3.29,-0.000781554500640193
-3.28875,-0.000683753639447342
-3.2875,-0.000567147710792968
-3.28625,-0.000441913405463325
-3.285,-0.000319887705084248
-3.28375,-0.000212298778597983
-3.2825,-0.000127569434163117
-3.28125,-6.97063036500924e-05
-3.28,-3.76615882660521e-05
-3.27875,-2.57717944424452e-05
-3.2775,-2.51333696548447e-05
-3.27625,-2.56392373495955e-05
-3.275,-1.82776268813523e-05
-3.27375,2.83680228940926e-06
-3.2725,3.92147815314777e-05
-3.27125,8.77958196768288e-05
-3.27,0.000141759615000842
-3.26875,0.000192122003746803
-3.2675,0.000229818599474172
-3.26625,0.000247877166108539
-3.265,0.000243172604877128
-3.26375,0.00021731321257916
-3.2625,0.000176458492618211
-3.26125,0.000130145391179335
-3.26,8.93672667550184e-05
-3.25875,6.42666913946488e-05
-3.2575,6.19435086760124e-05
-3.25625,8.49293395981706e-05
-3.255,0.00013069215707187
-3.25375,0.000192208348955106
-3.2525,0.000259408843290591
-3.25125,0.000321219605286143
-3.25,0.000367837388470038
-3.24875,0.000392761371664434
-3.2475,0.000394085716687538
-3.24625,0.000374754899846472
-3.245,0.000341773495197551
-3.24375,0.000304565165323599
-3.2425,0.000272793202932746
-3.24125,0.000254091516014689
-3.24,0.000252261118773437
-3.23875,0.00026638786861772
-3.2375,0.000291036013442241
-3.23625,0.000317391451418017
-3.235,0.000335101066950966
-3.23375,0.000334484074517762
-3.2325,0.000308673851924707
-3.23125,0.000255177985468257
-3.23,0.000176473246611869
-3.22875,7.95338665429207e-05
-3.2275,-2.55661690764888e-05
-3.22625,-0.000127700482938061
-3.225,-0.000216987258490516
-3.22375,-0.00028680570534627
-3.2225,-0.000335021997092348
-3.22125,-0.000364164928288853
-3.22,-0.000380600984807763
-3.21875,-0.000392932641154841
-3.2175,-0.000409914323849284
-3.21625,-0.000438283675291557
-3.215,-0.000481013276682113
-3.21375,-0.000536431258675305
-3.2125,-0.000598407002134497
-3.21125,-0.000657523563717539
-3.21,-0.000702992330885337
-3.20875,-0.000724947697121791
-3.2075,-0.000716619175615015
-3.20625,-0.000675832223650026
-3.205,-0.000605480642848773
-3.20375,-0.000512938631310461
-3.2025,-0.000408607001121217
-3.20125,-0.000303872722444859
-3.2,-0.000208842115998783
-3.19875,-0.000130328093832759
-3.1975,-7.05835344683521e-05
-3.19625,-2.70725526975046e-05
-3.195,6.71847891278438e-06
-3.19375,3.96299372702771e-05
-3.1925,8.06550209458788e-05
-3.19125,0.000136695735349591
-3.19,0.000210802682212167
-3.18875,0.000301344901283555
-3.1875,0.000402251043095804
-3.18625,0.000504186808383937
-3.185,0.000596412350417289
-3.18375,0.000668994814626672
-3.1825,0.000714932934580947
-3.18125,0.000731681740802587
-3.18,0.00072169935460055
-3.17875,0.000691921853687848
-3.1775,0.000652312698230657
-3.17625,0.000613769180683987
-3.175,0.000585797021294301
-3.17375,0.000574494372268285
-3.1725,0.000581355995135023
-3.17125,0.000603146664630084
-3.17,0.000632781450013247
-3.16875,0.000660980652423454
-3.1675,0.000678399195815115
-3.16625,0.000677827398325076
-3.165,0.000655954036155202
-3.16375,0.00061424331131647
-3.1625,0.000558733762171951
-3.16125,0.000498843689718159
-3.16,0.00044543473049234
-3.15875,0.000408504563679546
-3.1575,0.000395018888399491
-3.15625,0.00040743159821766
-3.155,0.000443242497091043
-3.15375,0.00049561499433779
-3.1525,0.000554852626783131
-3.15125,0.000610450507173018
-3.15,0.000653356872151901
-3.14875,0.000677961424381079
-3.1475,0.000683319319717107
-3.14625,0.000673323197304916
-3.145,0.000655826005505646
-3.14375,0.000640919086991703
-3.1425,0.000638690679476346
-3.14125,0.00065693005374098
-3.14,0.000699340738118344
-3.13875,0.000764708270301474
-3.1375,0.000847154905968125
-3.13625,0.00093733754028643
-3.135,0.0010243273003003
-3.13375,0.00109784172011974
-3.1325,0.00115038201653918
-3.13125,0.00117876160641967
-3.13,0.00118465023553228
-3.12875,0.00117404465636584
-3.1275,0.00115581705054552
-3.12625,0.0011396269159525
-3.125,0.00113360933260785
-3.12375,0.00114238086288549
-3.1225,0.00116587186559472
-3.12125,0.00119923196642582
-3.12,0.00123374574724514
-3.11875,0.00125852706559636
-3.1175,0.00126269156125154
-3.11625,0.00123760297889039
-3.115,0.00117868391068336
-3.11375,0.00108634410435517
-3.1125,0.000965835501547131
-3.11125,0.000826116092934872
-3.11,0.000677966434432307
-3.10875,0.00053171703264096
-3.1075,0.000395083336669597
-3.10625,0.000271652481700963
-3.105,0.000160379986038205
-3.10375,5.61343392176669e-05
-3.1025,-4.88996250777462e-05
-3.10125,-0.000163236487617611
-3.1,-0.000293888020874214
-3.09875,-0.000444426377121574
-3.0975,-0.000613803690242011
-3.09625,-0.000796214248492729
-3.095,-0.000981995224283874
-3.09375,-0.00115936182395757
-3.0925,-0.00131665294887874
-3.09125,-0.00144462373060214
-3.09,-0.00153822481973768
-3.08875,-0.0015974287535305
-3.0875,-0.0016269763662744
-3.08625,-0.00163518872232409
-3.085,-0.00163210465069357
-3.08375,-0.00162727099781764
-3.0825,-0.00162763138185468
-3.08125,-0.00163602467290503
-3.08,-0.00165066516933466
-3.07875,-0.00166569059056049
-3.0775,-0.00167262501889724
-3.07625,-0.00166246772101047
-3.075,-0.00162798712292204
-3.07375,-0.00156567095351788
-3.0725,-0.00147682601440503
-3.07125,-0.00136759488270356
-3.07,-0.001247968247645
-3.06875,-0.00113003344442882
-3.0675,-0.00102576310774737
-3.06625,-0.000944749742600905
-3.065,-0.000892394124631773
-3.06375,-0.000868988970802532
-3.0625,-0.00086988225372632
-3.06125,-0.000886633920299018
-3.06,-0.000908920178001336
-3.05875,-0.000926825008980442
-3.0575,-0.000933019593198375
-3.05625,-0.000924285337792252
-3.055,-0.000902025778517733
-3.05375,-0.00087173261232775
-3.0525,-0.000841594155956224
-3.05125,-0.000820521323809659
-3.05,-0.000815953563136907
-3.04875,-0.000831930148771701
-3.0475,-0.000867918334113166
-3.04625,-0.000918681508869479
-3.045,-0.000975178920023227
-3.04375,-0.00102628992088426
-3.0425,-0.00106103939272936
-3.04125,-0.00107086495453306
-3.04,-0.00105137093577296
-3.03875,-0.00100313132415145
-3.0375,-0.000931413022203318
-3.03625,-0.000844963258981185
-3.035,-0.000754122155963552
-3.03375,-0.00066859048793909
-3.0325,-0.000595300888002402
-3.03125,-0.000536903502963924
-3.03,-0.000491235965939895
-3.02875,-0.000451863161996541
-3.0275,-0.000409536642127684
-3.02625,-0.00035429030196735
-3.025,-0.000277759044978587
-3.02375,-0.000175177135270278
-3.0225,-4.65476455905717e-05
-3.02125,0.000103261256351837
-3.02,0.000265428965645383
-3.01875,0.000428872698379105
-3.0175,0.000582412854514626
-3.01625,0.000717004125532705
-3.015,0.000827520835476024
-3.01375,0.000913654635543165
-3.0125,0.000979742111718074
-3.01125,0.00103361046435897
-3.01,0.00108468772825826
-3.00875,0.00114173705321453
-3.0075,0.00121071232199413
-3.00625,0.00129327684808514
-3.005,0.00138633798566585
-3.00375,0.00148263128860334
-3.0025,0.00157216408088786
-3.00125,0.00164423954425761
-3,0.00168969437364323
-2.99875,0.00170286325144462
-2.9975,0.001682783063233
-2.99625,0.00163336051915188
-2.995,0.00156251459913225
-2.99375,0.00148049813749813
-2.9925,0.00139771593766355
-2.99125,0.00132249164529617
-2.99,0.00125933155783965
-2.98875,0.00120811931966502
-2.9875,0.00116437124599797
-2.98625,0.0011204132297057
-2.985,0.00106722333771456
-2.98375,0.000996612294035594
-2.9825,0.000903293065255854
-2.98125,0.000786329076320785
-2.98,0.000649595761862011
-2.97875,0.000501176939089079
-2.9775,0.00035185233868395
-2.97625,0.000212965920519179
-2.975,9.40968830481658e-05
-2.97375,1.08260152105569e-06
-2.9725,-6.51039547840626e-05
-2.97125,-0.00010839464619888
-2.97,-0.000136664031036939
-2.96875,-0.000160003991282606
-2.9675,-0.00018854149283268
-2.96625,-0.000230212282522659
-2.965,-0.00028900311007334
-2.96375,-0.000364099466514035
-2.9625,-0.000450112480163876
-2.96125,-0.00053828949892771
-2.96,-0.000618454933842837
-2.95875,-0.00068130909587809
-2.9575,-0.000720572142661059
-2.95625,-0.000734427171183194
-2.955,-0.000725923786995569
-2.95375,-0.000702329906434247
-2.9525,-0.000673636136572089
-2.95125,-0.000650496576174002
-2.95,-0.000641974172181857
-2.94875,-0.000653577509111474
-2.9475,-0.000686074940659352
-2.94625,-0.000735360410918223
-2.945,-0.00079335777159836
-2.94375,-0.000849757157009283
-2.9425,-0.000894259731330191
-2.94125,-0.000918865085096369
-2.94,-0.000919638141818648
-2.93875,-0.000897515552344691
-2.9375,-0.000858026326318901
-2.93625,-0.000810074124272564
-2.935,-0.000764045476475059
-2.93375,-0.00072958027448237
-2.9325,-0.000713459741235713
-2.93125,-0.000718122611290454
-2.93,-0.000741169253133012
-2.92875,-0.000775925503640631
-2.9275,-0.000812906196197904
-2.92625,-0.000841890944639243
-2.925,-0.000854199151419621
-2.92375,-0.000844626289230183
-2.9225,-0.000812545845002654
-2.92125,-0.000761950101364388
-2.92,-0.000700507166101541
-2.91875,-0.00063787047579487
-2.9175,-0.000583543968800957
-2.91625,-0.000544713086421161
-2.915,-0.000524551442473551
-2.91375,-0.000521436256305919
-2.9125,-0.000529241373429498
-2.91125,-0.00053860721107165
-2.91,-0.00053892798894698
-2.90875,-0.000520676091810146
-2.9075,-0.000477544699017026
-2.90625,-0.000407865561543048
-2.905,-0.000314975162646381
-2.90375,-0.000206528906764448
-2.9025,-9.2973182940584e-05
-2.90125,1.45389476642299e-05
-2.9,0.000106417609311807
-2.89875,0.000176601780918048
-2.8975,0.000223734950345439
-2.89625,0.00025128005675635
-2.895,0.000266592690846032
-2.89375,0.000279166963719361
-2.8925,0.000298388844293841
-2.89125,0.000331273509228247
-2.89,0.000380751679436943
-2.88875,0.000444933421162106
-2.8875,0.000517457050318375
-2.88625,0.000588762932425839
-2.885,0.000648023525397263
-2.88375,0.000685394371707831
-2.8825,0.000694133493674692
-2.88125,0.000672080570398796
-2.88,0.000622137085006246
-2.87875,0.000551675483371605
-2.8775,0.0004710372632481
-2.87625,0.000391409100906512
-2.875,0.000322493176635734
-2.87375,0.00027051297847354
-2.8725,0.000237054692324043
-2.87125,0.000218977798775821
-2.87,0.000209323867040078
-2.86875,0.000198988960630287
-2.8675,0.000178852636071539
-2.86625,0.000141948637627281
-2.865,8.51673776598313e-05
-2.86375,1.00614723703151e-05
-2.8625,-7.74117402328237e-05
-2.86125,-0.000168112641722095
-2.86,-0.000251653621161812
-2.85875,-0.000318673994555283
-2.8575,-0.000362946690084412
-2.85625,-0.000382779386160574
-2.855,-0.000381380256344996
-2.85375,-0.000366179181258511
-2.8525,-0.000347307112869682
-2.85125,-0.000335517305358157
-2.85,-0.000339920657948605
-2.84875,-0.000366025542186263
-2.8475,-0.000414565090407186
-2.84625,-0.000481378446419376
-2.845,-0.000558325917585128
-2.84375,-0.000635027612857318
-2.8425,-0.000701099439607473
-2.84125,-0.000748421182818322
-2.84,-0.000772879648553528
-2.83875,-0.000775156254150197
-2.8375,-0.00076043949334133
-2.83625,-0.000737208703351634
-2.835,-0.000715350263410968
-2.83375,-0.000703942703654357
-2.8325,-0.0007091687692157
-2.83125,-0.000732865691619731
-2.83,-0.000772069602421847
-2.82875,-0.000819621319400689
-2.8275,-0.000865670982801746
-2.82625,-0.000899790601331576
-2.825,-0.000913273384949536
-2.82375,-0.000901073448865675
-2.8225,-0.000862889559156647
-2.82125,-0.00080317304281021
-2.82,-0.000730144483080818
-2.81875,-0.000654059957369586
-2.8175,-0.000585035136087893
-2.81625,-0.00053084384149735
-2.815,-0.000495203575917157
-2.81375,-0.000476976597232221
-2.8125,-0.000470448369576084
-2.81125,-0.000466580585364438
-2.81,-0.000454983034748337
-2.80875,-0.000426230484642575
-2.8075,-0.000374011237353339
-2.80625,-0.000296565980386993
-2.805,-0.000197085464815378
-2.80375,-8.30572004879393e-05
-2.8025,3.52377057270042e-05
-2.80125,0.000146794867631866
-2.8,0.00024214976568231
-2.79875,0.000315339204000981
-2.7975,0.000365076190699461
-2.79625,0.0003948739691819
-2.795,0.00041214275589166
-2.79375,0.000426471007595456
-2.7925,0.000447416497033119
-2.79125,0.000482270632313781
-2.79,0.000534350511188476
-2.78875,0.000602245943413489
-2.7875,0.000680137077595963
-2.78625,0.000759032901796759
-2.785,0.000828668318774091
-2.78375,0.000879724112617579
-2.7825,0.000905913002407486
-2.78125,0.000905422210261492
-2.78,0.000881359360703399
-2.77875,0.00084113647211236
-2.7775,0.00079495396169043
-2.77625,0.000753674324333105
-2.775,0.000726506644141745
-2.77375,0.000719048357058839
-2.7725,0.000732180331730662
-2.77125,0.000762037173633678
-2.77,0.000800972298644912
-2.76875,0.000839279431651289
-2.7675,0.000867360489993156
-2.76625,0.000877919156974986
-2.765,0.0008676647580221
-2.76375,0.000838098040611708
-2.7625,0.000795219477062955
-2.76125,0.000748266500343402
-2.76,0.000707740566078563
-2.75875,0.00068310517247528
-2.7575,0.000680674165401431
-2.75625,0.000702229093290313
-2.755,0.000744683760247952
-2.75375,0.00080078966869749
-2.7525,0.000860670820676161
-2.75125,0.000913901445475106
-2.75,0.000951752166419543
-2.74875,0.000969112154141416
-2.7475,0.000965606835293066
-2.74625,0.000945652549344617
-2.745,0.000917477161114882
-2.74375,0.000891325934380914
-2.7425,0.000877191930079241
-2.74125,0.00088255223530344
-2.74,0.000910672742818055
-2.73875,0.000959897750944394
-2.7375,0.00102401902570967
-2.73625,0.00109355997307244
-2.735,0.00115770835217715
-2.73375,0.00120656131299775
-2.7325,0.00123322532776035
-2.73125,0.00123526238867811
-2.73,0.00121513291167405
-2.72875,0.00117957480532181
-2.7275,0.00113808495770744
-2.72625,0.00110079675577026
-2.725,0.00107617812377143
-2.72375,0.00106909704026369
-2.7225,0.00107974595459844
-2.72125,0.00110363907517198
-2.72,0.00113259657883048
-2.71875,0.00115647687444125
-2.7175,0.00116534837634812
-2.71625,0.00115168113075017
-2.715,0.00111204499373908
-2.71375,0.0010478902860464
-2.7125,0.000965255473758477
-2.71125,0.000873508872966161
-2.71,0.000783382118041993
-2.70875,0.000704669710710905
-2.7075,0.000644105574081136
-2.70625,0.00060395223668451
-2.705,0.000581627462751137
-2.70375,0.000570373723432678
-2.7025,0.000560767760553758
-2.70125,0.000542786095894661
-2.7,0.000508048510853018
-2.69875,0.000451742089577367
-2.6975,0.000373744474747795
-2.69625,0.000278691485757309
-2.695,0.000175022006425551
-2.69375,7.32191135867607e-05
-2.6925,-1.64202428189615e-05
-2.69125,-8.60185534166599e-05
-2.69,-0.000131802995743273
-2.68875,-0.000154828044573782
-2.6875,-0.000160633019623453
-2.68625,-0.000157990324705763
-2.685,-0.000157007101380758
-2.68375,-0.000166916215497739
-2.6825,-0.00019401342404794
-2.68125,-0.00024024568415044
-2.68,-0.000302794123327917
-2.67875,-0.000374707608851831
-2.6775,-0.000446420358265214
-2.67625,-0.00050786324712779
-2.675,-0.00055074878147471
-2.67375,-0.000570486819458107
-2.6725,-0.000567242060969816
-2.67125,-0.000545919375071525
-2.67,-0.000515161678923888
-2.66875,-0.000485598795106162
-2.6675,-0.000467657070434169
-2.66625,-0.000469351860018153
-2.665,-0.000494577928573995
-2.66375,-0.000542320596625462
-2.6625,-0.000606939640553757
-2.66125,-0.000679416823109812
-2.66,-0.000749309627042444
-2.65875,-0.000807037878779272
-2.6575,-0.000845993800134425
-2.65625,-0.000863942822653017
-2.655,-0.000863393454888134
-2.65375,-0.000850931594448748
-2.6525,-0.000835720659478114
-2.65125,-0.000827450620046364
-2.65,-0.00083411433734618
-2.64875,-0.000860108395691831
-2.6475,-0.000905136428106089
-2.64625,-0.000964164576089325
-2.645,-0.00102839276427965
-2.64375,-0.00108702310908841
-2.6425,-0.00112949546551856
-2.64125,-0.00114772272632159
-2.64,-0.00113777407318847
-2.63875,-0.00110059152861431
-2.6375,-0.00104163898774929
-2.63625,-0.000969641502205914
-2.635,-0.000894679807653255
-2.63375,-0.000825979567298248
-2.6325,-0.00076985622013823
-2.63125,-0.000728322376362146
-2.63,-0.000698699765274834
-2.62875,-0.000674287382620989
-2.6275,-0.0006459130090465
-2.62625,-0.00060406759721114
-2.625,-0.000541187337643639
-2.62375,-0.000453529097445693
-2.6225,-0.000342156253124718
-2.62125,-0.000212843437667182
-2.62,-7.50072619627172e-05
-2.61875,6.00875355103562e-05
-2.6175,0.000181534061072512
-2.61625,0.00028097944445643
-2.615,0.00035429912486828
-2.61375,0.000402332685441767
-2.6125,0.000430536814699196
-2.61125,0.000447672385647092
-2.61,0.000463793930952218
-2.60875,0.000487931764422142
-2.6075,0.000525992699566512
-2.60625,0.000579412934364676
-2.605,0.000644866777814438
-2.60375,0.000715013258020357
-2.6025,0.000780064068222809
-2.60125,0.000829881192924069
-2.6,0.000856220146562207
-2.59875,0.000854619286952756
-2.5975,0.000825459822523448
-2.59625,0.000773953664879048
-2.595,0.000709103781141309
-2.59375,0.000641865287289222
-2.5925,0.000582851012157234
-2.59125,0.000540065473905864
-2.59,0.000517227539299897
-2.58875,0.000513088360554809
-2.5875,0.000521828470826795
-2.58625,0.000534364456396525
-2.585,0.000540296157104855
-2.58375,0.000530152323744565
-2.5825,0.000497471342989654
-2.58125,0.00044021166282767
-2.58,0.000361155083099977
-2.57875,0.000267254850696757
-2.5775,0.000168100921637276
-2.57625,7.37989332283897e-05
-2.575,-7.309372327587e-06
-2.57375,-7.05381907365599e-05
-2.5725,-0.000115880451536249
-2.57125,-0.000147960678835471
-2.57,-0.000175012368172406
-2.56875,-0.000207121829238288
-2.5675,-0.000254049562867532
-2.56625,-0.000323051989793809
-2.565,-0.000417215133764105
-2.56375,-0.000534714030839186
-2.5625,-0.000669140217485302
-2.56125,-0.000810782922322213
-2.56,-0.000948604401051997
-2.55875,-0.00107253253657464
-2.5575,-0.00117555695193796
-2.55625,-0.00125509771487364
-2.555,-0.00131333484529788
-2.55375,-0.00135650565885249
-2.5525,-0.00139337934140352
-2.55125,-0.00143319742336922
-2.55,-0.0014834633850145
-2.54875,-0.00154807984256295
-2.5475,-0.00162630590998762
-2.54625,-0.00171277460270863
-2.545,-0.0017985247514609
-2.54375,-0.00187281984990901
-2.5425,-0.00192541016069555
-2.54125,-0.00194875445837017
-2.54,-0.00193964523188232
-2.53875,-0.0018998390208473
-2.5375,-0.00183561687239433
-2.53625,-0.00175645118737809
-2.535,-0.00167305211926249
-2.53375,-0.00159513730587247
-2.5325,-0.00152938739331102
-2.53125,-0.00147808827885147
-2.53,-0.00143878872311899
-2.52875,-0.00140501185499528
-2.5275,-0.0013678399503521
-2.52625,-0.00131806745775691
-2.525,-0.00124848351753146
-2.52375,-0.00115573017500519
-2.5225,-0.0010412604393237
-2.52125,-0.000911213449620984
-2.52,-0.000775317956120421
-2.51875,-0.000645074562293759
-2.5175,-0.000531531638713307
-2.51625,-0.000443080041943968
-2.515,-0.000383777857019452
-2.51375,-0.000352615552131439
-2.5125,-0.00034385952376746
-2.51125,-0.000348354943530021
-2.51,-0.000355521952064407
-2.50875,-0.000355661054368559
-2.5075,-0.000342050450188399
-2.50625,-0.000312308208708427
-2.505,-0.000268715971924336
-2.50375,-0.00021751788934426
-2.5025,-0.000167406260855905
-2.50125,-0.00012748236184591
-2.5,-0.000105075280922329
-2.49875,-0.000103915577128611
-2.4975,-0.00012313195152679
-2.49625,-0.000157304595729713
-2.495,-0.000197524383689625
-2.49375,-0.000233227441508418
-2.4925,-0.000254459988182868
-2.49125,-0.000254088816728507
-2.49,-0.000229402327089902
-2.48875,-0.000182708329649369
-2.4875,-0.00012085818831714
-2.48625,-5.38742968666626e-05
-2.485,7.04724104039621e-06
-2.48375,5.18141890177471e-05
-2.4825,7.35308936919083e-05
-2.48125,6.99035124478055e-05
-2.48,4.36281982554672e-05
-2.47875,1.72073913121514e-06
-2.4775,-4.60374985948286e-05
-2.47625,-8.92395784640915e-05
-2.475,-0.000119148109922069
-2.47375,-0.000130596773443688
-2.4725,-0.000123018865535944
-2.47125,-0.000100408160040114
-2.47,-7.03104415657345e-05
-2.46875,-4.20882822205314e-05
-2.4675,-2.47719980324801e-05
-2.46625,-2.49240606933071e-05
-2.465,-4.50300304674593e-05
-2.46375,-8.28241785390688e-05
-2.4625,-0.000131683293536294
-2.46125,-0.000181966954540056
-2.46,-0.000223036169338985
-2.45875,-0.000245559537769394
-2.4575,-0.000243581291303405
-2.45625,-0.000215824637810186
-2.455,-0.000165938673221658
-2.45375,-0.00010171501562827
-2.4525,-3.34914178256111e-05
-2.45125,2.79673346949939e-05
-2.45,7.37254838067891e-05
-2.44875,9.85687849818758e-05
-2.4475,0.000102063384087382
-2.44625,8.85467252947826e-05
-2.445,6.60999172847386e-05
-2.44375,4.47308430857105e-05
-2.4425,3.41128679487518e-05
-2.44125,4.13633230798061e-05
-2.44,6.94169889557486e-05
-2.43875,0.000116391467034706
-2.4375,0.000176020472663404
-2.43625,0.000238982969111142
-2.435,0.000294858114675333
-2.43375,0.000334360263331214
-2.4325,0.00035138709593293
-2.43125,0.000344378984062149
-2.43,0.000316664101395772
-2.42875,0.000275753052526909
-2.4275,0.000231761327985127
-2.42625,0.000195258269484044
-2.425,0.00017497340793551
-2.42375,0.000175907976520327
-2.4225,0.000198327745247002
-2.42125,0.000237827485997195
-2.42,0.000286365950750038
-2.41875,0.000334027818420522
-2.4175,0.00037119865105818
-2.41625,0.000390724265328002
-2.415,0.000389540946146021
-2.41375,0.000369368470197693
-2.4125,0.000336332259523342
-2.41125,0.000299635708862208
-2.41,0.000269549378042968
-2.40875,0.000255105497350734
-2.4075,0.000262022044472756
-2.40625,0.000291385516705127
-2.405,0.000339389831169252
-2.40375,0.000398109570622525
-2.4025,0.000457090739628399
-2.40125,0.000505466225290334
-2.4,0.000534206776388828
-2.39875,0.00053800507535959
-2.3975,0.000516325215710954
-2.39625,0.000473389256590475
-2.395,0.000417155375532992
-2.39375,0.000357517237267106
-2.3925,0.000304065002522157
-2.39125,0.0002638848707084
-2.39,0.000239945585869715
-2.38875,0.000230467028087532
-2.3875,0.000229351059842263
-2.38625,0.00022750788948033
-2.385,0.000214809535721737
-2.38375,0.000182322040170563
-2.3825,0.0001243466113667
-2.38125,3.97685951437672e-05
-2.38,-6.76078446286147e-05
-2.37875,-0.000189773833795038
-2.3775,-0.000316100514487252
-2.37625,-0.000435494204813562
-2.375,-0.000538687740291606
-2.37375,-0.000620119290825732
-2.3725,-0.000678926628086991
-2.37125,-0.000718872646431175
-2.37,-0.000747307128402315
-2.36875,-0.000773409288487993
-2.3675,-0.000806025219515431
-2.36625,-0.000851529440609254
-2.365,-0.000912223242129466
-2.36375,-0.000985672621339996
-2.3625,-0.00106511123151497
-2.36125,-0.00114078079184872
-2.36,-0.00120193924745145
-2.35875,-0.00123914686039724
-2.3575,-0.00124630751611206
-2.35625,-0.00122194487113086
-2.355,-0.00116943010750116
-2.35375,-0.00109619403634227
-2.3525,-0.00101214300512398
-2.35125,-0.000927569269765963
-2.35,-0.000850943357368912
-2.34875,-0.000787089183293829
-2.3475,-0.00073620467341699
-2.34625,-0.000693948558146953
-2.345,-0.000652531449842798
-2.34375,-0.000602573632508673
-2.3425,-0.000535375741956469
-2.34125,-0.000445108434834305
-2.34,-0.000330366580616017
-2.33875,-0.00019470863267521
-2.3375,-4.61281885229628e-05
-2.33625,0.000104356349873508
-2.335,0.000244720220350007
-2.33375,0.000364211078875504
-2.3325,0.000455418122014407
-2.33125,0.000515630127553393
-2.33,0.000547163146659985
-2.32875,0.000556630297684828
-2.3275,0.000553340864783491
-2.32625,0.000547137274753623
-2.325,0.000546109534936095
-2.32375,0.000554735624854197
-2.3225,0.000572913770708911
-2.32125,0.000596062944320472
-2.32,0.000616181663126075
-2.31875,0.000623618772678968
-2.3175,0.000609241287504289
-2.31625,0.000566570267006148
-2.315,0.000493374528649261
-2.31375,0.00039232326434388
-2.3125,0.000270574331296757
-2.31125,0.000138425343583714
-2.31,7.29598385140341e-06
-2.30875,-0.000112570238772289
-2.3075,-0.000214163875720355
-2.30625,-0.000295005920464966
-2.305,-0.000357394803568394
-2.30375,-0.000407632275722999
-2.3025,-0.0004544473099402
-2.30125,-0.000506911453877769
-2.3,-0.000572235579978158
-2.29875,-0.000653949021552734
-2.2975,-0.000750922013367918
-2.29625,-0.000857449469379448
-2.295,-0.000964332904078614
-2.29375,-0.00106072460199129
-2.2925,-0.001136384451019
-2.29125,-0.00118386080273608
-2.29,-0.00120004565016483
-2.28875,-0.00118672709256287
-2.2875,-0.00115008538560532
-2.28625,-0.00109931719396843
-2.285,-0.00104466240752508
-2.28375,-0.000995182973423607
-2.2825,-0.000956763159850334
-2.28125,-0.00093082719300225
-2.28,-0.000914085264334362
-2.27875,-0.000899329716352689
-2.2775,-0.000877091608431271
-2.27625,-0.000837843016525765
-2.275,-0.000774291943710583
-2.27375,-0.000683209098831185
-2.2725,-0.000566323037617343
-2.27125,-0.00043012443339818
-2.27,-0.000284707993832675
-2.26875,-0.000141909364998043
-2.2675,-1.30577368498336e-05
-2.26625,9.32220979417717e-05
-2.265,0.000172645847184672
-2.26375,0.000225947841322026
-2.2625,0.000258483452762373
-2.26125,0.000278886910021564
-2.26,0.000297054615948244
-2.25875,0.000321844443937373
-2.2575,0.000359015418179726
-2.25625,0.00040993022762501
-2.255,0.000471306499300901
-2.25375,0.000535987468882269
-2.2525,0.000594514989568995
-2.25125,0.000637213320797952
-2.25,0.000656392701350496
-2.24875,0.000648170447115555
-2.2475,0.000613449459695267
-2.24625,0.000557835960940919
-2.245,0.000490556063673727
-2.24375,0.000422602445318645
-2.2425,0.000364457342423551
-2.24125,0.000323878717844731
-2.24,0.000304301656451113
-2.23875,0.000304241288157973
-2.2375,0.000317763789798779
-2.23625,0.000335850038106588
-2.235,0.000348379024204808
-2.23375,0.000346376529397603
-2.2325,0.00032405254125903
-2.23125,0.00028012652871747
-2.23,0.000218127921337635
-2.22875,0.000145649619917226
-2.2275,7.27413660946915e-05
-2.22625,9.74838111178789e-06
-2.225,-3.49660626985528e-05
-2.22375,-5.68647072199091e-05
-2.2225,-5.61821809559977e-05
-2.22125,-3.77996285191361e-05
-2.22,-1.01600789450895e-05
-2.21875,1.65288591800972e-05
-2.2175,3.24876648070459e-05
-2.21625,3.0517568196433e-05
-2.215,7.59764507669773e-06
-2.21375,-3.44709452134238e-05
-2.2125,-8.94891089738169e-05
-2.21125,-0.000148217943887696
-2.21,-0.000200398430069308
-2.20875,-0.000237040829634785
-2.2075,-0.000252459950990249
-2.20625,-0.000245538718886233
-2.205,-0.000219942226659166
-2.20375,-0.000183318248538734
-2.2025,-0.000145703536993142
-2.20125,-0.00011742689841225
-2.2,-0.000106899440595463
-2.19875,-0.000118793143861474
-2.1975,-0.000153063239498815
-2.19625,-0.000205024678058566
-2.195,-0.000266416453616721
-2.19375,-0.000327220928200354
-2.1925,-0.000377896034724261
-2.19125,-0.000411541550734233
-2.19,-0.000425455969033259
-2.18875,-0.000421703853495974
-2.1875,-0.00040663005748225
-2.18625,-0.000389496312295817
-2.185,-0.000380511190421195
-2.18375,-0.000388605215417186
-2.1825,-0.00041942423077354
-2.18125,-0.000474037104867607
-2.18,-0.00054866534172377
-2.17875,-0.000635454030514813
-2.1775,-0.000724096908432709
-2.17625,-0.00080400920105506
-2.175,-0.000866607083838163
-2.17375,-0.000907143376325438
-2.1725,-0.000925638398029143
-2.17125,-0.000926739815109394
-2.17,-0.00091862931491075
-2.16875,-0.000911226091027185
-2.1675,-0.000914005937716757
-2.16625,-0.000933869940637017
-2.165,-0.000973572567948141
-2.16375,-0.00103109773124296
-2.1625,-0.00110009105164052
-2.16125,-0.00117121130614668
-2.16,-0.00123413062830939
-2.15875,-0.00127979675499308
-2.1575,-0.00130244051155176
-2.15625,-0.00130081766893791
-2.155,-0.00127841051146368
-2.15375,-0.00124262392734441
-2.1525,-0.0012031930364694
-2.15125,-0.00117009291663626
-2.15,-0.00115134146809882
-2.14875,-0.00115119566065542
-2.1475,-0.00116919362275929
-2.14625,-0.00120025017712364
-2.145,-0.00123573932150995
-2.14375,-0.00126533070617454
-2.1425,-0.0012792342400281
-2.14125,-0.001270368284879
-2.14,-0.00123590676960778
-2.13875,-0.00117783100156798
-2.1375,-0.00110243106249511
-2.13625,-0.00101893816925373
-2.135,-0.000937561044151687
-2.13375,-0.000867277785972079
-2.1325,-0.000813854707790021
-2.13125,-0.000778584490445567
-2.13,-0.000758045013919454
-2.12875,-0.000744891924441665
-2.1275,-0.000729493721193759
-2.12625,-0.00070209975365594
-2.125,-0.000655095673775157
-2.12375,-0.000584795815090826
-2.1225,-0.000492320636925262
-2.12125,-0.000383406299335136
-2.12,-0.000267272247948611
-2.11875,-0.000154798221690809
-2.1175,-5.63282986130937e-05
-2.11625,2.04666207640809e-05
-2.115,7.216302123902e-05
-2.11375,0.000100211818812146
-2.1125,0.000110510117966121
-2.11125,0.000112050833020911
-2.11,0.000114918232622698
-2.10875,0.000128018352697446
-2.1075,0.00015706481576126
-2.10625,0.000203331444075668
-2.105,0.000263443637511184
-2.10375,0.000330171384722434
-2.1025,0.000394006378845091
-2.10125,0.000445232375894623
-2.1,0.000476097273510491
-2.09875,0.000482588075085901
-2.0975,0.000465360619733929
-2.09625,0.000429622075634734
-2.095,0.000384037415474658
-2.09375,0.000338895782025182
-2.0925,0.00030388341702428
-2.09125,0.00028594491212141
-2.09,0.000287770045414649
-2.08875,0.000307271264450496
-2.0875,0.000338101422725344
-2.08625,0.000371030449288382
-2.085,0.000395910265877414
-2.08375,0.000403878410527012
-2.0825,0.000389332592747178
-2.08125,0.000351191175730742
-2.08,0.000293144922323974
-2.07875,0.000222887667606522
-2.0775,0.000150512516992308
-2.07625,8.63757762839887e-05
-2.075,3.88639669835463e-05
-2.07375,1.26042874628189e-05
-2.0725,7.56653001919617e-06
-2.07125,1.92139338842627e-05
-2.07,3.95851949007527e-05
-2.06875,5.90626331129137e-05
-2.0675,6.85125345234708e-05
-2.06625,6.13689663904779e-05
-2.065,3.51598905805893e-05
-2.06375,-7.90340802182607e-06
-2.0625,-6.13769980534436e-05
-2.06125,-0.000115939045376821
-2.06,-0.000161380684568585
-2.05875,-0.000188847189049883
-2.0575,-0.000192814213185284
-2.05625,-0.000172294585835825
-2.055,-0.000131010833460944
-2.05375,-7.65757678020889e-05
-2.0525,-1.89005754424226e-05
-2.05125,3.18794734992458e-05
-2.05,6.75722930230291e-05
-2.04875,8.36941142320167e-05
-2.0475,8.03904044253029e-05
-2.04625,6.23167696660991e-05
-2.045,3.75535891921275e-05
-2.04375,1.57885839992255e-05
-2.0425,6.11098981505657e-06
-2.04125,1.48962177411456e-05
-2.04,4.43140757530724e-05
-2.03875,9.18204164451239e-05
-2.0375,0.0001506787147138
-2.03625,0.000211330271257148
-2.035,0.000263343414845336
-2.03375,0.000297593301476053
-2.0325,0.000308207183569197
-2.03125,0.000293795252624001
-2.03,0.00025767915930029
-2.02875,0.000207112543887096
-2.0275,0.000151684195867806
-2.02625,0.000101205501566871
-2.025,6.35129693067583e-05
-2.02375,4.27191976370691e-05
-2.0225,3.83522959546221e-05
-2.02125,4.55344530279131e-05
-2.02,5.60781298951204e-05
-2.01875,6.02536902289734e-05
-2.0175,4.89145731974518e-05
-2.01625,1.55533075195672e-05
-2.015,-4.22069099198013e-05
-2.01375,-0.000122054893092576
-2.0125,-0.000217463780060234
-2.01125,-0.000319052882282947
-2.01,-0.000416569379758897
-2.00875,-0.000501103714322326
-2.0075,-0.000567028150742811
-2.00625,-0.000613165287998434
-2.005,-0.00064293371415352
-2.00375,-0.000663518937556257
-2.0025,-0.000684288289962082
-2.00125,-0.000714736136927312
-2,-0.000762343404825531
-1.99875,-0.000830839200491197
-1.9975,-0.000919298911057098
-1.99625,-0.00102226971314008
-1.995,-0.00113084887093322
-1.99375,-0.00123448318098934
-1.9925,-0.0013231522717556
-1.99125,-0.00138946681942395
-1.99,-0.00143015828251011
-1.98875,-0.00144660474452196
-1.9875,-0.00144434462388014
-1.98625,-0.00143175479501162
-1.985,-0.00141815789349923
-1.98375,-0.00141170255990313
-1.9825,-0.00141747609687317
-1.98125,-0.00143632236458058
-1.98,-0.00146464637590513
-1.97875,-0.00149520799762844
-1.9775,-0.00151871308841532
-1.97625,-0.00152589830538924
-1.975,-0.00150967649806854
-1.97375,-0.00146681362272016
-1.9725,-0.00139871196665507
-1.97125,-0.0013111677666773
-1.97,-0.0012132375641501
-1.96875,-0.00111546356800809
-1.9675,-0.0010277693546241
-1.96625,-0.000957443083879878
-1.965,-0.000907686485368532
-1.96375,-0.000877080261131895
-1.9625,-0.000860048565341516
-1.96125,-0.000848179882172453
-1.96,-0.000832139950278261
-1.95875,-0.000803802185826935
-1.9575,-0.000758103346504546
-1.95625,-0.000694152355394082
-1.955,-0.000615354650152944
-1.95375,-0.000528604707217174
-1.9525,-0.000442762886309844
-1.95125,-0.000366697453917127
-1.95,-0.00030726563637575
-1.94875,-0.000267703684759362
-1.9475,-0.000246837928097797
-1.94625,-0.000239287874779335
-1.945,-0.000236573946972505
-1.94375,-0.000228892880942335
-1.9425,-0.000207226284712387
-1.94125,-0.000165327258944636
-1.94,-0.000101086360364619
-1.93875,-1.6949057285549e-05
-1.9375,8.06432175670649e-05
-1.93625,0.000182603104525797
-1.935,0.00027907487283262
-1.93375,0.000361504587891904
-1.9325,0.000424459978291379
-1.93125,0.000466749774964279
-1.93,0.00049158212080785
-1.92875,0.000505771276975562
-1.9275,0.000518184583365429
-1.92625,0.000537723494632432
-1.925,0.000571253336791578
-1.92375,0.000621990290787324
-1.9225,0.000688757440967896
-1.92125,0.000766239041310832
-1.92,0.000846102601708215
-1.91875,0.000918744162124172
-1.9175,0.00097534997923958
-1.91625,0.00100986060629678
-1.915,0.00102036192784572
-1.91375,0.00100955538863956
-1.9125,0.000984227650320874
-1.91125,0.000953865594489333
-1.91,0.000928684946664768
-1.90875,0.000917452250320239
-1.9075,0.000925598823994062
-1.90625,0.000954103339072382
-1.905,0.000999380214454611
-1.90375,0.00105411750258494
-1.9025,0.00110884495260801
-1.90125,0.00115394832927463
-1.9,0.00118175070600886
-1.89875,0.00118818381809051
-1.8975,0.00117363160427167
-1.89625,0.00114276992712303
-1.895,0.00110348499469869
-1.89375,0.00106510467428716
-1.8925,0.00103627988084485
-1.89125,0.00102297893121837
-1.89,0.00102710187866229
-1.88875,0.00104604843692875
-1.8875,0.00107327220078007
-1.88625,0.00109964034952806
-1.885,0.00111533578210515
-1.88375,0.00111196068912365
-1.8825,0.00108438866185682
-1.88125,0.00103190615944055
-1.88,0.00095837717172022
-1.87875,0.000871436702902909
-1.8775,0.000780903281105959
-1.87625,0.000696706969419735
-1.875,0.000626756348599071
-1.87375,0.000575264642838521
-1.8725,0.000541955851919659
-1.87125,0.000522284771087823
-1.87,0.000508542619553678
-1.86875,0.00049160380448088
-1.8675,0.000463003902344825
-1.86625,0.000416928005192031
-1.865,0.000351626423751698
-1.86375,0.000269905349046825
-1.8625,0.000178611004681591
-1.86125,8.72521364210118e-05
-1.86,6.02883211365013e-06
-1.85875,-5.63500183535561e-05
-1.8575,-9.45574231958331e-05
-1.85625,-0.000107767223417928
-1.855,-9.97624558745106e-05
-1.85375,-7.80874693788813e-05
-1.8525,-5.24608779243262e-05
-1.85125,-3.27333640380157e-05
-1.85,-2.67734640494391e-05
-1.84875,-3.87644281239789e-05
-1.8475,-6.83363076560403e-05
-1.84625,-0.000110715346780775
-1.845,-0.000157813611933414
-1.84375,-0.000200026329426367
-1.8425,-0.000228394665568739
-1.84125,-0.000236660742010058
-1.84,-0.000222697494706396
-1.83875,-0.000188973466055608
-1.8375,-0.000142017594172945
-1.83625,-9.10646615993629e-05
-1.835,-4.61461412179144e-05
-1.83375,-1.59719129892004e-05
-1.8325,-6.06175077105782e-06
-1.83125,-1.75900153838457e-05
-1.83,-4.72108830178074e-05
-1.82875,-8.78583171718695e-05
-1.8275,-0.000130330758410544
-1.82625,-0.000165363235761245
-1.825,-0.000185759706551102
-1.82375,-0.00018806106673147
-1.8225,-0.000173326830638638
-1.82125,-0.00014689824276795
-1.82,-0.000117272352287236
-1.81875,-9.43321555623011e-05
-1.8175,-8.72450587090752e-05
-1.81625,-0.000102454798940512
-1.815,-0.000142253136269754
-1.81375,-0.000204283815384132
-1.8125,-0.000282058528116122
-1.81125,-0.000366338452658131
-1.81,-0.000447110692094351
-1.80875,-0.000515771844220881
-1.8075,-0.000567010619240867
-1.80625,-0.000599910450076465
-1.805,-0.00061803927769063
-1.80375,-0.000628586766819599
-1.8025,-0.000640769279584422
-1.80125,-0.000663788685691176
-1.8,-0.000704730934705716
-1.79875,-0.000766889802847656
-1.7975,-0.000848937741351234
-1.79625,-0.000945117448556207
-1.795,-0.00104636718092224
-1.79375,-0.00114214176884124
-1.7925,-0.0012225859677494
-1.79125,-0.00128058790935161
-1.79,-0.00131319885289814
-1.78875,-0.00132208560300564
-1.7875,-0.00131298666081252
-1.78625,-0.00129435585892237
-1.785,-0.00127545885693361
-1.78375,-0.00126426853801979
-1.7825,-0.00126561924613496
-1.78125,-0.00128008273180676
-1.78,-0.00130383007198744
-1.77875,-0.00132946931789165
-1.7775,-0.00134766291182108
-1.77625,-0.00134921983901658
-1.775,-0.00132722880053281
-1.77375,-0.00127870708261779
-1.7725,-0.00120534866778532
-1.77125,-0.00111324691311326
-1.77,-0.001011726931367
-1.76875,-0.000911536595483375
-1.7675,-0.000822712286628523
-1.76625,-0.000752547741189177
-1.765,-0.000704152337754577
-1.76375,-0.000675947781088527
-1.7625,-0.000662177961264415
-1.76125,-0.000654281444498365
-1.76,-0.000642854156073254
-1.75875,-0.000619815730672004
-1.7575,-0.000580275227928649
-1.75625,-0.000523622132336757
-1.755,-0.000453613685882173
-1.75375,-0.000377519661414912
-1.7525,-0.000304543703715315
-1.75125,-0.000243806694196001
-1.75,-0.000202277941471925
-1.74875,-0.00018313711977932
-1.7475,-0.00018498386448268
-1.74625,-0.000202064843108929
-1.745,-0.000225430239197861
-1.74375,-0.000244779280370421
-1.7425,-0.000250643391000046
-1.74125,-0.000236424155844514
-1.74,-0.000199770021759128
-1.73875,-0.000142969318685442
-1.7375,-7.23467758442989e-05
-1.73625,3.14205676184069e-06
-1.735,7.38481246733168e-05
-1.73375,0.000131548592128712
-1.7325,0.000171287583493855
-1.73125,0.000192477213843734
-1.73,0.000198999490072725
-1.72875,0.000198325049781193
-1.7275,0.000199851530706597
-1.72625,0.000212776860723156
-1.725,0.000243953826259774
-1.72375,0.000296257197598887
-1.7225,0.000367871325797549
-1.72125,0.000452606141938085
-1.72,0.000541094613930645
-1.71875,0.000622619527440532
-1.7175,0.000687253517526742
-1.71625,0.000727884116344155
-1.715,0.00074163910441358
-1.71375,0.000730367063167338
-1.7125,0.000700102124655669
-1.71125,0.000659665088170879
-1.71,0.000618674418421202
-1.70875,0.000585356805534099
-1.7075,0.00056466515659872
-1.70625,0.000557178657806627
-1.705,0.000559012683882487
-1.70375,0.000562677884159035
-1.7025,0.000558670650811182
-1.70125,0.000537508872177788
-1.7,0.000491824630635858
-1.69875,0.000418029668565471
-1.6975,0.000317138967024653
-1.69625,0.000194586543575638
-1.695,5.91229014682963e-05
-1.69375,-7.89698778258417e-05
-1.6925,-0.000210005061676508
-1.69125,-0.000326892004856972
-1.69,-0.000426504552672677
-1.68875,-0.000510094039593562
-1.6875,-0.000582726329156929
-1.68625,-0.000651929730266506
-1.685,-0.000725818941366612
-1.68375,-0.000811039349037788
-1.6825,-0.000910986493095712
-1.68125,-0.00102475381362397
-1.68,-0.00114706165407754
-1.67875,-0.00126914840483969
-1.6775,-0.0013804221550663
-1.67625,-0.00147056317049428
-1.675,-0.00153163999846211
-1.67375,-0.00155971830438511
-1.6725,-0.00155556300817917
-1.67125,-0.00152433020692649
-1.67,-0.00147439648164398
-1.66875,-0.00141557642643225
-1.6675,-0.00135704177205005
-1.66625,-0.0013053643848332
-1.665,-0.00126315736015819
-1.66375,-0.00122864745447977
-1.6625,-0.001196241964784
-1.66125,-0.00115793458712652
-1.66,-0.00110527302232786
-1.65875,-0.00103149228956705
-1.6575,-0.000933304852992126
-1.65625,-0.000811887042955752
-1.655,-0.000672859221596593
-1.65375,-0.000525341828181993
-1.6525,-0.000380314465797021
-1.65125,-0.000248564208515701
-1.65,-0.000138606750334065
-1.64875,-5.50557907063377e-05
-1.6475,2.15655633696679e-06
-1.64625,3.75531527109877e-05
-1.645,5.89748223907533e-05
-1.64375,7.57723543598553e-05
-1.6425,9.66707289658963e-05
-1.64125,0.000127774717709314
-1.64,0.000171217818128928
-1.63875,0.000224769221416007
-1.6375,0.000282412209666396
-1.63625,0.000335704693419939
-1.635,0.000375657459115089
-1.63375,0.000394787133711663
-1.6325,0.00038889162409265
-1.63125,0.000358100698917907
-1.63,0.000306956209481594
-1.62875,0.000243545433181349
-1.6275,0.000177887478916731
-1.62625,0.000119875229541776
-1.625,7.71991203071668e-05
-1.62375,5.37628707940998e-05
-1.6225,4.89858319750192e-05
-1.62125,5.80986084289678e-05
-1.62,7.32909604752112e-05
-1.61875,8.54665111678384e-05
-1.6175,8.62942988576714e-05
-1.61625,7.01379576626439e-05
-1.615,3.53921458847818e-05
-1.61375,-1.51033495629717e-05
-1.6125,-7.46338912762047e-05
-1.61125,-0.000134012173446286
-1.61,-0.000183541372900018
-1.60875,-0.000215150587077817
-1.6075,-0.000224198320873245
-1.60625,-0.000210482574604394
-1.605,-0.000178250199587405
-1.60375,-0.000135283458713524
-1.6025,-9.12897092051612e-05
-1.60125,-5.58811197335028e-05
-1.6,-3.65281057693298e-05
-1.59875,-3.69597381158634e-05
-1.5975,-5.64105869565846e-05
-1.59625,-8.98664848181405e-05
-1.595,-0.000129211894661651
-1.59375,-0.000165038392472035
-1.5925,-0.000188769951672151
-1.59125,-0.000194636165751783
-1.59,-0.000180994956960867
-1.58875,-0.000150695215404761
-1.5875,-0.000110468689518767
-1.58625,-6.95394440728678e-05
-1.585,-3.77137665632504e-05
-1.58375,-2.32947440475424e-05
-1.5825,-3.12768965109068e-05
-1.58125,-6.22699246281881e-05
-1.58,-0.000112397235611115
-1.57875,-0.000174147237046917
-1.5775,-0.000237980575741226
-1.57625,-0.000294392032023819
-1.575,-0.000335997326560076
-1.57375,-0.000359128646711068
-1.5725,-0.000364539909768583
-1.57125,-0.000357114452395254
-1.57,-0.000344717970428373
-1.56875,-0.000336445141497415
-1.5675,-0.000340573340293752
-1.56625,-0.000362645016043768
-1.565,-0.000404148374586823
-1.56375,-0.000462122507464597
-1.5625,-0.000529745292844547
-1.56125,-0.00059774850579348
-1.56,-0.000656385015218064
-1.55875,-0.000697553455459979
-1.5575,-0.000716573557491716
-1.55625,-0.000713157360023203
-1.555,-0.000691381932835201
-1.55375,-0.000658751734160173
-1.5525,-0.000624579699999402
-1.55125,-0.000597973575964091
-1.55,-0.00058581172640311
-1.54875,-0.000591182854686931
-1.5475,-0.00061268723337025
-1.54625,-0.00064474589805962
-1.545,-0.000678812834803239
-1.54375,-0.000705240935644491
-1.5425,-0.000715444403384968
-1.54125,-0.000703873847193873
-1.54,-0.000669301094021264
-1.53875,-0.000615117414911511
-1.5375,-0.00054865636470027
-1.53625,-0.000479746041599542
-1.535,-0.000418760537653233
-1.53375,-0.000374515365517601
-1.5325,-0.000352459439517343
-1.53125,-0.000353607851353257
-1.53,-0.000374455479562369
-1.52875,-0.000407843555383036
-1.5275,-0.000444576338072624
-1.52625,-0.000475482346473802
-1.525,-0.0004934910116863
-1.52375,-0.00049521428129844
-1.5225,-0.00048164137334182
-1.52125,-0.000457843393442978
-1.52,-0.000431829440452343
-1.51875,-0.000412798444382558
-1.5175,-0.000409097191600391
-1.51625,-0.000426305900924242
-1.515,-0.000465921228382735
-1.51375,-0.00052496113173152
-1.5125,-0.000596546978877039
-1.51125,-0.000671306273514185
-1.51,-0.000739324792872396
-1.50875,-0.00079226274246746
-1.5075,-0.000825137610395161
-1.50625,-0.000837321311206865
-1.505,-0.000832550738078801
-1.50375,-0.000818030177460869
-1.5025,-0.000802847750549538
-1.50125,-0.000795988586150817
-1.5,-0.000804325012044241
-1.49875,-0.000831052274737569
-1.4975,-0.000874962112219556
-1.49625,-0.000930700548252283
-1.495,-0.000989911157741408
-1.49375,-0.00104302559185723
-1.4925,-0.00108135993459423
-1.49125,-0.00109905127381646
-1.49,-0.00109434179094765
-1.48875,-0.00106990899792943
-1.4875,-0.00103223870824888
-1.48625,-0.000990232695896243
-1.485,-0.000953314328060529
-1.48375,-0.000929374836192231
-1.4825,-0.000923011211016094
-1.48125,-0.000934496176532199
-1.48,-0.000959715405125656
-1.47875,-0.000991042017316716
-1.4775,-0.00101894742141603
-1.47625,-0.00103404546965347
-1.475,-0.00102914203457874
-1.47375,-0.00100078266439137
-1.4725,-0.000949913759005748
-1.47125,-0.00088156254998333
-1.47,-0.000803684138938174
-1.46875,-0.000725423570724417
-1.4675,-0.000655103673781388
-1.46625,-0.000598355817733673
-1.465,-0.000556854522068434
-1.46375,-0.000527969141444033
-1.4625,-0.000505379164712037
-1.46125,-0.000480492006424505
-1.46,-0.000444388684447843
-1.45875,-0.00038990753911089
-1.4575,-0.000313369003788698
-1.45625,-0.000215500665888758
-1.455,-0.000101379946708718
-1.45375,2.05136639936173e-05
-1.4525,0.000139910021888633
-1.45125,0.000246741299198548
-1.45,0.000333139438131146
-1.44875,0.000394976245835173
-1.4475,0.000432564074965978
-1.44625,0.000450381070339895
-1.445,0.000455925846812946
-1.44375,0.000457941596603921
-1.4425,0.000464351207691782
-1.44125,0.000480366004064354
-1.44,0.000507250325574358
-1.43875,0.00054202846341036
-1.4375,0.000578127598735631
-1.43625,0.000606763452216678
-1.435,0.000618807983601749
-1.43375,0.000606800674673148
-1.4325,0.000566660252897159
-1.43125,0.000498667574089391
-1.43,0.000407494313402714
-1.42875,0.000301312374057735
-1.4275,0.000190185538873423
-1.42625,8.40436392543459e-05
-1.425,-9.3394891624541e-06
-1.42375,-8.5867021582735e-05
-1.4225,-0.000145764788941161
-1.42125,-0.000193262702996032
-1.42,-0.000235459732716339
-1.41875,-0.000280615792757462
-1.4175,-0.000336175861578052
-1.41625,-0.000406937571000146
-1.415,-0.000493815989866296
-1.41375,-0.00059351229119628
-1.4125,-0.000699129912881606
-1.41125,-0.000801578159557107
-1.41,-0.000891492021593767
-1.40875,-0.00096128262009992
-1.4075,-0.00100682656383748
-1.40625,-0.00102836022622483
-1.405,-0.00103040269484402
-1.40375,-0.00102080229519041
-1.4025,-0.00100913250785094
-1.40125,-0.00100471698886812
-1.4,-0.00101465824754201
-1.39875,-0.00104232716134093
-1.3975,-0.00108668793416704
-1.39625,-0.00114258769220653
-1.395,-0.00120190266614466
-1.39375,-0.00125530140380669
-1.3925,-0.00129428677528762
-1.39125,-0.00131306015635504
-1.39,-0.00130973365517268
-1.38875,-0.00128661227442319
-1.3875,-0.00124955853719753
-1.38625,-0.00120663552895389
-1.385,-0.00116628886711273
-1.38375,-0.00113540349408455
-1.3825,-0.00111767192047283
-1.38125,-0.00111269217209022
-1.38,-0.00111600858806615
-1.37875,-0.00112005139739955
-1.3775,-0.00111576758405239
-1.37625,-0.00109463665867441
-1.375,-0.00105064422566121
-1.37375,-0.000981718663864861
-1.3725,-0.000890272661456289
-1.37125,-0.000782782101164541
-1.37,-0.000668564921113127
-1.36875,-0.000558009158350608
-1.3675,-0.000460555549631129
-1.36625,-0.000382841824644436
-1.365,-0.000327454653823197
-1.36375,-0.000292586865120962
-1.3625,-0.000272636522732826
-1.36125,-0.00025958479275424
-1.36,-0.000244883799388757
-1.35875,-0.000221478131743593
-1.3575,-0.000185480794205377
-1.35625,-0.000137076783286096
-1.355,-8.0476071273412e-05
-1.35375,-2.30048797874432e-05
-1.3525,2.64434288586784e-05
-1.35125,5.93213397838113e-05
-1.35,6.93341365673087e-05
-1.34875,5.3890430157389e-05
-1.3475,1.47291090862832e-05
-1.34625,-4.24008355587692e-05
-1.345,-0.00010889761338956
-1.34375,-0.000175063176353908
-1.3425,-0.000232125153907155
-1.34125,-0.0002740741228135
-1.34,-0.00029884871789774
-1.33875,-0.000308594331775961
-1.3375,-0.000309008521252284
-1.33625,-0.00030796790551076
-1.335,-0.000313695813656745
-1.33375,-0.000332806109828456
-1.3325,-0.00036865926251027
-1.33125,-0.000420447698074156
-1.33,-0.000483223864559089
-1.32875,-0.000548830132329545
-1.3275,-0.000607526049535235
-1.32625,-0.000650005317928936
-1.325,-0.000669371448539184
-1.32375,-0.000662577010611619
-1.3225,-0.000630973392260344
-1.32125,-0.000579909140284592
-1.32,-0.00051754075577373
-1.31875,-0.000453103740564076
-1.3175,-0.000394948521461886
-1.31625,-0.000348747012869171
-1.315,-0.000316310655819505
-1.31375,-0.000295310012024481
-1.3125,-0.000279926924332744
-1.31125,-0.000262272928323321
-1.31,-0.000234298399063553
-1.30875,-0.000189802705992134
-1.3075,-0.000126056309638113
-1.30625,-4.46158337910085e-05
-1.305,4.88237187499898e-05
-1.30375,0.000145430983094294
-1.3025,0.000234864561472918
-1.30125,0.000307244997805116
-1.3,0.000355102024649647
-1.29875,0.000374848644325403
-1.2975,0.000367419616008838
-1.29625,0.000337955188901261
-1.295,0.000294641799019182
-1.29375,0.000246948652535178
-1.2925,0.000203597004786912
-1.29125,0.000170715171717594
-1.29,0.000150645455086083
-1.28875,0.000141671789275161
-1.2875,0.000138650195787192
-1.28625,0.000134345823640783
-1.285,0.000121217893501315
-1.28375,9.33186775280915e-05
-1.2825,4.78745952233624e-05
-1.28125,-1.38590397991278e-05
-1.28,-8.6671309864369e-05
-1.27875,-0.00016234601489032
-1.2775,-0.000231280869458353
-1.27625,-0.000284472393016427
-1.275,-0.00031544603932984
-1.27375,-0.000321648264148923
-1.2725,-0.00030495542122793
-1.27125,-0.000271240523377416
-1.27,-0.000229161470928224
-1.26875,-0.000188416386348737
-1.2675,-0.000157767527213861
-1.26625,-0.000143236029559079
-1.265,-0.000146904145489951
-1.26375,-0.000166610618262448
-1.2625,-0.000196567744462682
-1.26125,-0.000228735633057527
-1.26,-0.000254686090955939
-1.25875,-0.000267580553826606
-1.2575,-0.000263787048006176
-1.25625,-0.00024372129491729
-1.255,-0.000211748786454513
-1.25375,-0.000175246205299743
-1.2525,-0.000143045782308168
-1.25125,-0.00012353867245269
-1.25,-0.000122805274782474
-1.24875,-0.000143215417591541
-1.2475,-0.000182852308332737
-1.24625,-0.000235871271820761
-1.245,-0.000293677380793892
-1.24375,-0.000346683617389641
-1.2425,-0.000386316136049046
-1.24125,-0.000406818747368099
-1.24,-0.000406398089124694
-1.23875,-0.000387449304266288
-1.2375,-0.000355886009786051
-1.23625,-0.000319772624388495
-1.235,-0.000287517560046876
-1.23375,-0.00026596038998605
-1.2325,-0.000258782476397111
-1.23125,-0.000265644542693035
-1.23,-0.00028224759710309
-1.22875,-0.000301263819832547
-1.2275,-0.000313930185374941
-1.22625,-0.000312004137511893
-1.225,-0.000289664311134283
-1.22375,-0.000244877886315934
-1.2225,-0.000179894606424921
-1.22125,-0.000100811355184518
-1.22,-1.63709998264688e-05
-1.21875,6.37595927607142e-05
-1.2175,0.000130931981806718
-1.21625,0.000179280677814361
-1.215,0.000206881348229222
-1.21375,0.000216026695773639
-1.2125,0.000212597231663989
-1.21125,0.000204691114617663
-1.21,0.000200776924921898
-1.20875,0.000207740899491138
-1.2075,0.000229298357605897
-1.20625,0.000265176339410079
-1.205,0.000311222490576147
-1.20375,0.000360336596276472
-1.2025,0.000403999902170995
-1.20125,0.000434128906316809
-1.2,0.000444892262491325
-1.19875,0.000434057448195249
-1.1975,0.000403524371842012
-1.19625,0.000358944287078678
-1.195,0.000308544355755476
-1.19375,0.000261396038709026
-1.1925,0.00022545831979087
-1.19125,0.000205837698359503
-1.19,0.000203710745250157
-1.18875,0.000216153365414427
-1.1875,0.000236842876363354
-1.18625,0.000257434312023826
-1.185,0.000269357041701393
-1.18375,0.000265704236269817
-1.1825,0.00024279310512977
-1.18125,0.000201002302161182
-1.18,0.0001446991867836
-1.17875,8.13147283584303e-05
-1.1775,1.977211486094e-05
-1.17625,-3.14361897040504e-05
-1.175,-6.61155250973978e-05
-1.17375,-8.17124522412126e-05
-1.1725,-7.98022718924981e-05
-1.17125,-6.56673119307376e-05
-1.17,-4.71288491452104e-05
-1.16875,-3.28751778588078e-05
-1.1675,-3.05820913100402e-05
-1.16625,-4.52166684527445e-05
-1.165,-7.79419902448229e-05
-1.16375,-0.000125887745240625
-1.1625,-0.000182802249329527
-1.16125,-0.000240419912111647
-1.16,-0.000290283294772968
-1.15875,-0.000325655574935572
-1.1575,-0.000343064478677822
-1.15625,-0.000343081073345921
-1.155,-0.000330183493763051
-1.15375,-0.000311808122331296
-1.1525,-0.000296810051369524
-1.15125,-0.00029360513868599
-1.15,-0.000308354770504217
-1.14875,-0.000343623455077522
-1.1475,-0.000397846274311238
-1.14625,-0.000465703359597663
-1.145,-0.000539279355275204
-1.14375,-0.000609770213832534
-1.1425,-0.000669410417700695
-1.14125,-0.000713186214881486
-1.14,-0.000739894845620426
-1.13875,-0.000752306058049895
-1.1375,-0.000756458418766317
-1.13625,-0.00076029017715215
-1.135,-0.000771861198259808
-1.13375,-0.000797493964624649
-1.1325,-0.000840252903818456
-1.13125,-0.000899150260647174
-1.13,-0.000969259306735888
-1.12875,-0.00104267118286463
-1.1275,-0.00111008510751706
-1.12625,-0.00116273430602519
-1.125,-0.00119423912032946
-1.12375,-0.00120192308974897
-1.1225,-0.00118726886440154
-1.12125,-0.00115547036377549
-1.12,-0.00111424870288296
-1.11875,-0.00107217372565835
-1.1175,-0.00103678562868798
-1.11625,-0.00101290666417084
-1.115,-0.00100155860849932
-1.11375,-0.000999747345622727
-1.1125,-0.00100112687482243
-1.11125,-0.000997374909219075
-1.11,-0.000980017416856865
-1.10875,-0.000942335481927024
-1.1075,-0.000880894612783071
-1.10625,-0.000796303407324574
-1.105,-0.000693058739953713
-1.10375,-0.000578586436622655
-1.1025,-0.00046170299666511
-1.10125,-0.000350772961402681
-1.1,-0.00025192381150478
-1.09875,-0.000167745373746395
-1.0975,-9.68041089630162e-05
-1.09625,-3.40632606841573e-05
-1.095,2.79172168622257e-05
-1.09375,9.724425024233e-05
-1.0925,0.000180756244083787
-1.09125,0.000282332317526891
-1.09,0.000401882425664026
-1.08875,0.000535245598089311
-1.0875,0.000674948385558815
-1.08625,0.000811618399410041
-1.085,0.000935797435181215
-1.08375,0.00103982763491609
-1.0825,0.00111939331338372
-1.08125,0.00117433411026007
-1.08,0.0012085522259564
-1.07875,0.00122907754112086
-1.0775,0.00124449790764456
-1.07625,0.00126304833875384
-1.075,0.00129076467886931
-1.07375,0.00133016586279963
-1.0725,0.00137979065384701
-1.07125,0.00143463493983962
-1.07,0.00148732158646278
-1.06875,0.0015297581975848
-1.0675,0.00155498562776757
-1.06625,0.0015588268007185
-1.065,0.0015409230261212
-1.06375,0.00150490229090524
-1.0625,0.00145767376650542
-1.06125,0.00140802150238227
-1.06,0.00136476376477996
-1.05875,0.00133484761423592
-1.0575,0.00132183834436033
-1.05625,0.00132519109444797
-1.055,0.0013404395171067
-1.05375,0.0013601878194224
-1.0525,0.00137567922463034
-1.05125,0.0013786649960779
-1.05,0.0013632103831164
-1.04875,0.00132700992324635
-1.0475,0.00127188303573674
-1.04625,0.00120336037747194
-1.045,0.00112948633084807
-1.04375,0.00105907797568881
-1.0425,0.000999774608617859
-1.04125,0.000956320022286914
-1.04,0.000929516770716765
-1.03875,0.00091608664850328
-1.0375,0.000909396596407798
-1.03625,0.000900848196870898
-1.035,0.000881673983512498
-1.03375,0.000844811244040302
-1.0325,0.000786435413399162
-1.03125,0.000706770686741568
-1.03,0.000610002135883375
-1.02875,0.000503353026636174
-1.0275,0.000395534969976729
-1.02625,0.000294866148674173
-1.025,0.000207462302661233
-1.02375,0.000135957851854489
-1.0225,7.9073429784681e-05
-1.02125,3.20703352424498e-05
-1.02,-1.20755535257952e-05
-1.01875,-6.10227671286047e-05
-1.0175,-0.000121232844748737
-1.01625,-0.000196349025881644
-1.015,-0.000286195403449473
-1.01375,-0.000386647064556037
-1.0125,-0.000490372199639474
-1.01125,-0.000588270316639951
-1.01,-0.000671336855787885
-1.00875,-0.000732578777956203
-1.0075,-0.000768517298421093
-1.00625,-0.000779894721500039
-1.005,-0.000771461643133895
-1.00375,-0.000750966835694379
-1.0025,-0.000727577711963913
-1.00125,-0.000710003909901182
-1,-0.000704684765052802
-0.99875,-0.00071446613057213
-0.9975,-0.000738092845219018
-0.99625,-0.000770603520503728
-0.995,-0.000804501165038698
-0.99375,-0.000831460891951244
-0.9925,-0.00084424472313372
-0.99125,-0.000838387125791241
-0.99,-0.000813218326856585
-0.98875,-0.000771995728961195
-0.9875,-0.000721185537447275
-0.98625,-0.000669094768281648
-0.985,-0.000624107429674746
-0.98375,-0.000592851966489855
-0.9825,-0.000578716466324069
-0.98125,-0.000581090707692244
-0.98,-0.00059550439039444
-0.97875,-0.000614591806344497
-0.9775,-0.000629672865158684
-0.97625,-0.000632654456659782
-0.975,-0.000617845737579789
-0.97375,-0.000583229750460009
-0.9725,-0.000530879194897459
-0.97125,-0.000466481065293088
-0.97,-0.000398139429876031
-0.96875,-0.000334697782218737
-0.9675,-0.00028387718665189
-0.96625,-0.000250620912065692
-0.965,-0.000236055184066545
-0.96375,-0.000237315704205636
-0.9625,-0.000248242309665812
-0.96125,-0.000260769512508748
-0.96,-0.000266747293128035
-0.95875,-0.000259821214100624
-0.9575,-0.000236913108259798
-0.95625,-0.000198922511129882
-0.955,-0.000150524231881198
-0.95375,-9.91811745677638e-05
-0.9525,-5.35979623114665e-05
-0.95125,-2.18869765365373e-05
-0.95,-9.80630746643481e-06
-0.94875,-1.94915462918625e-05
-0.9475,-4.9001205706901e-05
-0.94625,-9.27547639968329e-05
-0.945,-0.000142731426486069
-0.94375,-0.00019018870294569
-0.9425,-0.000227570740879335
-0.94125,-0.000250172997446854
-0.94,-0.000257137850308244
-0.93875,-0.000251560681707425
-0.9375,-0.000239754152083535
-0.93625,-0.00022987155877688
-0.935,-0.000230141701761024
-0.93375,-0.000247040547904764
-0.9325,-0.000283812612224633
-0.93125,-0.000339715532075364
-0.93,-0.000410152808527209
-0.92875,-0.000487624232870679
-0.9275,-0.000563285362225057
-0.92625,-0.000628822310248237
-0.925,-0.000678239670824289
-0.92375,-0.000709109998013946
-0.9225,-0.000722977432665157
-0.92125,-0.000724881798970818
-0.92,-0.00072217224115805
-0.91875,-0.000722851955275931
-0.9175,-0.00073375083913346
-0.91625,-0.000758915673075361
-0.915,-0.00079862261345976
-0.91375,-0.000849253816432227
-0.9125,-0.00090403292352324
-0.91125,-0.000954441992571666
-0.91,-0.000992051568271291
-0.90875,-0.00101039266472321
-0.9075,-0.00100641543317635
-0.90625,-0.000981162252192451
-0.905,-0.000939538902642237
-0.90375,-0.000889308086411339
-0.9025,-0.000839532311913885
-0.90125,-0.000798737068606328
-0.9,-0.000773151498327144
-0.89875,-0.000765444054977801
-0.8975,-0.000774267232112928
-0.89625,-0.000794686331895429
-0.895,-0.00081935995219061
-0.89375,-0.000840233372113359
-0.8925,-0.000850417056654176
-0.89125,-0.000845818795459114
-0.89,-0.000826107023867692
-0.88875,-0.000794788913260343
-0.8875,-0.000758454122760168
-0.88625,-0.000725386777259417
-0.885,-0.000703800014725278
-0.88375,-0.000700021287722904
-0.8825,-0.00071704249791175
-0.88125,-0.000753804362659385
-0.88,-0.000805371229612921
-0.87875,-0.000863917351027758
-0.8775,-0.00092031162564176
-0.87625,-0.000966006146392326
-0.875,-0.000994827116035201
-0.87375,-0.00100422000105199
-0.8725,-0.000995647979284118
-0.87125,-0.000974115662400615
-0.87,-0.000946988189592906
-0.86875,-0.000922344198263986
-0.8675,-0.000907155475386105
-0.86625,-0.000905679505657614
-0.865,-0.000918466448002476
-0.86375,-0.00094221989316754
-0.8625,-0.000970507165265102
-0.86125,-0.000995147237836629
-0.86,-0.00100801495973254
-0.85875,-0.00100289506061399
-0.8575,-0.000976931276376016
-0.85625,-0.000931295091498321
-0.855,-0.000870953185537338
-0.85375,-0.000803655359610046
-0.8525,-0.000738371249325343
-0.85125,-0.000683450920994892
-0.85,-0.000644870996705061
-0.84875,-0.000624985552763435
-0.8475,-0.000622094140390947
-0.84625,-0.000630898276724931
-0.845,-0.000643710230603951
-0.84375,-0.000652171915872912
-0.8425,-0.000649153065499615
-0.84125,-0.000630394230598264
-0.84,-0.000595470527580107
-0.83875,-0.000547861349360281
-0.8375,-0.000494181573869615
-0.83625,-0.000442781779326563
-0.835,-0.000401974508161156
-0.83375,-0.000378214979274792
-0.8325,-0.000374649173734409
-0.83125,-0.000390397207677759
-0.83,-0.00042072742834564
-0.82875,-0.000458042172889334
-0.8275,-0.00049346108414248
-0.82625,-0.000518704134464446
-0.825,-0.000527869971751561
-0.82375,-0.00051866281432671
-0.8225,-0.000492773092491108
-0.82125,-0.000455389812880522
-0.82,-0.000414015974740452
-0.81875,-0.000376823212130044
-0.8175,-0.000350837031732797
-0.81625,-0.000340339522786401
-0.815,-0.000345890960103203
-0.81375,-0.000364206940769323
-0.8125,-0.000388882459744925
-0.81125,-0.00041178618669151
-0.81,-0.000424859177108687
-0.80875,-0.000421949362733437
-0.8075,-0.000400230878575118
-0.80625,-0.00036084315935862
-0.805,-0.000308640075174469
-0.80375,-0.000251175326183851
-0.8025,-0.000197149789025748
-0.80125,-0.000154591573846057
-0.8,-0.000129127557987396
-0.79875,-0.000122762702766267
-0.7975,-0.000133474908289905
-0.79625,-0.000155692649728013
-0.795,-0.000181517749222229
-0.79375,-0.000202450105482501
-0.7925,-0.000211281048433769
-0.79125,-0.000203720422215435
-0.79,-0.000179339082829278
-0.78875,-0.00014162104550624
-0.7875,-9.71860818032407e-05
-0.78625,-5.43896399098646e-05
-0.785,-2.15548915311858e-05
-0.78375,-5.16520680092696e-06
-0.7825,-8.43027258921935e-06
-0.78125,-3.05908635252353e-05
-0.78,-6.71118419982908e-05
-0.77875,-0.000110679255915552
-0.7775,-0.000152785457729533
-0.77625,-0.00018560385616636
-0.775,-0.000203747899201095
-0.77375,-0.000205467462543507
-0.7725,-0.000192990590322888
-0.77125,-0.000171993405157178
-0.77,-0.000150375263266132
-0.76875,-0.000136581749493112
-0.7675,-0.000137772789540619
-0.76625,-0.000158225050302658
-0.765,-0.000198366743516174
-0.76375,-0.000254674639956579
-0.7625,-0.000320418399787944
-0.76125,-0.000387072023109036
-0.76,-0.000446125874141861
-0.75875,-0.000490931403403599
-0.7575,-0.000518129081828285
-0.75625,-0.000528295969606313
-0.755,-0.000525704227688671
-0.75375,-0.000517317290454058
-0.7525,-0.000511249900329516
-0.75125,-0.000514964068535089
-0.75,-0.000533561104817607
-0.74875,-0.000568585232531374
-0.7475,-0.000617642782339403
-0.74625,-0.000674899139241977
-0.745,-0.000732311724009125
-0.74375,-0.000781353862990873
-0.7425,-0.000814895948565685
-0.74125,-0.00082881042919225
-0.74,-0.00082288632721961
-0.73875,-0.00080085299367285
-0.7375,-0.000769577812550408
-0.73625,-0.000737646126417356
-0.735,-0.000713578826136549
-0.73375,-0.000704016905249293
-0.7325,-0.000712286202571255
-0.73125,-0.000737704769913057
-0.73,-0.000775778723945904
-0.72875,-0.000819200457511644
-0.7275,-0.000859432626477415
-0.72625,-0.000888577874946666
-0.725,-0.000901126266893756
-0.72375,-0.000895133967312526
-0.7225,-0.000872546795869499
-0.72125,-0.000838659027714903
-0.72,-0.000800889015326642
-0.71875,-0.000767115342274088
-0.7175,-0.000743871142147594
-0.71625,-0.000734785740400159
-0.715,-0.000739670069646641
-0.71375,-0.000754472579239797
-0.7125,-0.000772087103292652
-0.71125,-0.000783826772946131
-0.71,-0.000781285881177171
-0.70875,-0.00075820508446045
-0.7075,-0.000711879428230465
-0.70625,-0.000643751614661671
-0.705,-0.000559100544724552
-0.70375,-0.000465968662085454
-0.7025,-0.000373562516957398
-0.70125,-0.000290401837699523
-0.7,-0.000222578684054852
-0.69875,-0.000172541136177298
-0.6975,-0.000138702291526111
-0.69625,-0.000115934086525832
-0.695,-9.68027803380967e-05
-0.69375,-7.32980297530031e-05
-0.6925,-3.8716367519502e-05
-0.69125,1.07384019494291e-05
-0.69,7.50497859394194e-05
-0.68875,0.00015037208302148
-0.6875,0.000229834548016588
-0.68625,0.00030495901647935
-0.685,0.000367436595157055
-0.68375,0.000410931507359305
-0.6825,0.00043249459166648
-0.68125,0.00043322237490559
-0.68,0.000418017654780624
-0.67875,0.000394541201245626
-0.6775,0.000371576818508187
-0.67625,0.000357119632944608
-0.675,0.000356606934331652
-0.67375,0.0003717429893594
-0.6725,0.000400199728613165
-0.67125,0.000436194990119721
-0.67,0.000471761306035036
-0.66875,0.000498457942267416
-0.6675,0.000509224124231435
-0.66625,0.000499979552809509
-0.665,0.000470573177803573
-0.66375,0.000424853392873399
-0.6625,0.000369878383018439
-0.66125,0.000314451606161004
-0.66,0.000267259313108355
-0.65875,0.000234994552881814
-0.6575,0.000220928868994171
-0.65625,0.000224290666790721
-0.655,0.000240543366240213
-0.65375,0.000262424794599228
-0.6525,0.000281517839312517
-0.65125,0.000290078351312226
-0.65,0.00028275733162161
-0.64875,0.000257802159461499
-0.6475,0.000217437511937795
-0.64625,0.000167367712498801
-0.645,0.000115541820853882
-0.64375,7.04253076878004e-05
-0.6425,3.91145684041269e-05
-0.64125,2.57321214042305e-05
-0.64,3.05162946356781e-05
-0.63875,4.98003099944814e-05
-0.6375,7.68121594077158e-05
-0.63625,0.000103086904548787
-0.635,0.000120236075863597
-0.63375,0.000121743453121495
-0.6325,0.000104374636049202
-0.63125,6.88433589961002e-05
-0.63,1.95953379416532e-05
-0.62875,-3.62010189260447e-05
-0.6275,-9.02404482730846e-05
-0.62625,-0.000134943987738211
-0.625,-0.000165193282308109
-0.62375,-0.000179493221868216
-0.6225,-0.000180279322234798
-0.62125,-0.000173359224458577
-0.62,-0.000166666537276917
-0.61875,-0.000168569502193227
-0.6175,-0.000186035556443481
-0.61625,-0.000223046048486382
-0.615,-0.000279658502194236
-0.61375,-0.000351939473435874
-0.6125,-0.000432746822401886
-0.61125,-0.00051317770885566
-0.61,-0.000584410109199559
-0.60875,-0.00063956009110304
-0.6075,-0.000675099513505052
-0.60625,-0.000691477287220997
-0.605,-0.000692849515681192
-0.60375,-0.00068605403968933
-0.6025,-0.000679056476400568
-0.60125,-0.000679140353305013
-0.6,-0.000691205165715744
-0.59875,-0.000716588893191424
-0.5975,-0.000752713256718794
-0.59625,-0.00079360654307643
-0.595,-0.000831158943462839
-0.59375,-0.000856863071327718
-0.5925,-0.000863699839566667
-0.59125,-0.000847730359879749
-0.59,-0.000808983270053397
-0.58875,-0.000751448659724759
-0.5875,-0.00068225153539179
-0.58625,-0.000610214591012866
-0.585,-0.000544067021581965
-0.58375,-0.000490633361960269
-0.5825,-0.000453417913424366
-0.58125,-0.000431941460460762
-0.58,-0.000421965995320751
-0.57875,-0.000416514424852495
-0.5775,-0.000407466372816758
-0.57625,-0.000387428676475269
-0.575,-0.000351472045890902
-0.57375,-0.000298290826224346
-0.5725,-0.000230505194916344
-0.57125,-0.000154099101088742
-0.57,-7.71745721006151e-05
-0.56875,-8.26533892001444e-06
-0.5675,4.54894029314442e-05
-0.56625,7.99175898936851e-05
-0.565,9.47381972528522e-05
-0.56375,9.36171215578983e-05
-0.5625,8.33792103166417e-05
-0.56125,7.25612947396837e-05
-0.56,6.95782311200166e-05
-0.55875,8.08782359232549e-05
-0.5575,0.000109539919190747
-0.55625,0.000154664932381548
-0.555,0.000211659686897598
-0.55375,0.000273270475839265
-0.5525,0.000331144087250891
-0.55125,0.000377640040908852
-0.55,0.000407530732691883
-0.54875,0.000419175154178542
-0.5475,0.000414870840042572
-0.54625,0.000400330886676051
-0.545,0.000383430699291517
-0.54375,0.000372470531613675
-0.5425,0.000374293558326884
-0.54125,0.000392700084818662
-0.54,0.000427568949604351
-0.53875,0.000474873486347079
-0.5375,0.000527516990637676
-0.53625,0.000576776591678848
-0.535,0.000614098397344774
-0.53375,0.000632909918631224
-0.5325,0.000630034583333944
-0.53125,0.00060635271394161
-0.53,0.000566573923916624
-0.52875,0.000518212874893179
-0.5275,0.000469985644560616
-0.52625,0.00042992863000567
-0.525,0.000403651528847639
-0.52375,0.0003931694609323
-0.5225,0.000396593435050284
-0.52125,0.000408683800068382
-0.52,0.00042208652903883
-0.51875,0.000429010166188138
-0.5175,0.000423040296618606
-0.51625,0.000400694048041243
-0.515,0.000362318563326909
-0.51375,0.000312117747625903
-0.5125,0.000257336737225432
-0.51125,0.000206792682059429
-0.51,0.000169026689276492
-0.50875,0.000150456679616399
-0.5075,0.000153985108565958
-0.50625,0.000178411992665541
-0.505,0.000218741224062827
-0.50375,0.000267242288678666
-0.5025,0.000315039634744697
-0.50125,0.000353953813011493
-0.5,0.000378226565363936
-0.49875,0.000385713458960154
-0.4975,0.000378249712029956
-0.49625,0.000361136998857291
-0.495,0.000341895424554689
-0.49375,0.000328527477348781
-0.4925,0.000327637159247437
-0.49125,0.000342847727437868
-0.49,0.000373927708692204
-0.48875,0.000416808926908286
-0.4875,0.000464420005686685
-0.48625,0.000508125143589939
-0.485,0.000539511122825005
-0.48375,0.000552186490957322
-0.4825,0.000543175890645922
-0.48125,0.000513555098257014
-0.48,0.000468195377210645
-0.47875,0.000414712819846691
-0.4775,0.000361843422539156
-0.47625,0.000317549955634799
-0.475,0.000287275198565163
-0.47375,0.000272785655488432
-0.4725,0.000271880748676229
-0.47125,0.000278967844869806
-0.47,0.00028632011155286
-0.46875,0.000285773131668285
-0.4675,0.000270555543284403
-0.46625,0.000236855400600374
-0.465,0.000184727192294545
-0.46375,0.000118125906335552
-0.4625,4.40986069379974e-05
-0.46125,-2.86782556667381e-05
-0.46,-9.17410476378781e-05
-0.45875,-0.000138680093783683
-0.4575,-0.000166524952188545
-0.45625,-0.00017632304893376
-0.455,-0.000172824200098942
-0.45375,-0.000163410814457728
-0.4525,-0.000156504277527001
-0.45125,-0.00015972602229611
-0.45,-0.000178183849296936
-0.44875,-0.00021330154968943
-0.4475,-0.000262483872247841
-0.44625,-0.000319663556665861
-0.445,-0.000376581546495304
-0.44375,-0.000424550536685457
-0.4425,-0.000456355592710903
-0.44125,-0.000467846266639297
-0.44,-0.000458811544952408
-0.43875,-0.000432957218958783
-0.4375,-0.000397065404099065
-0.43625,-0.000359548732460132
-0.435,-0.000328658504231481
-0.43375,-0.000310684945375628
-0.4325,-0.000308567007326159
-0.43125,-0.000321264243045166
-0.43,-0.00034401944470216
-0.42875,-0.000369414528056635
-0.4275,-0.000388997946047228
-0.42625,-0.000395176272893548
-0.425,-0.000382953292128094
-0.42375,-0.000351071334095419
-0.4225,-0.00030228144119077
-0.42125,-0.000242744470746456
-0.42,-0.000180747111897394
-0.41875,-0.000124978607167596
-0.4175,-8.26780934244187e-05
-0.41625,-5.8056570626576e-05
-0.415,-5.13904983709384e-05
-0.41375,-5.89990442077293e-05
-0.4125,-7.40717236596423e-05
-0.41125,-8.81549312767802e-05
-0.41,-9.30183686856903e-05
-0.40875,-8.25156030907017e-05
-0.4075,-5.39797142091302e-05
-0.40625,-8.80269381013979e-06
-0.405,4.78861615782125e-05
-0.40375,0.000108300580317847
-0.4025,0.000163604628319247
-0.40125,0.000205765879506348
-0.4,0.000229279635465737
-0.39875,0.00023234384592012
-0.3975,0.00021719393226726
-0.39625,0.00018955349624871
-0.395,0.000157351969683651
-0.39375,0.000128960360291486
-0.3925,0.000111292518802611
-0.39125,0.000108218829906391
-0.39,0.000119700888378732
-0.38875,0.000141825073844831
-0.3875,0.000167652954428459
-0.38625,0.000188676109483208
-0.385,0.000196616664254511
-0.38375,0.000185233403502036
-0.3825,0.000151712591796991
-0.38125,9.72899806252135e-05
-0.38,2.69777387844497e-05
-0.37875,-5.15032945715993e-05
-0.3775,-0.000129362957608119
-0.37625,-0.000198644323418301
-0.375,-0.000253971135864977
-0.37375,-0.000293693680886033
-0.3725,-0.000320159591675908
-0.37125,-0.000339112401974583
-0.37,-0.000358403306348654
-0.36875,-0.000386263695027389
-0.3675,-0.000429450044471154
-0.36625,-0.000491666721671953
-0.365,-0.000572663614782001
-0.36375,-0.00066821800634648
-0.3625,-0.00077096500097587
-0.36125,-0.000871885218963596
-0.36,-0.000962172172640518
-0.35875,-0.00103509408952777
-0.3575,-0.0010873912598526
-0.35625,-0.00111985798911444
-0.355,-0.00113702430449959
-0.35375,-0.00114607901095054
-0.3525,-0.00115526605464751
-0.35125,-0.00117203723186064
-0.35,-0.00120133805718063
-0.34875,-0.0012444467599314
-0.3475,-0.00129865419440701
-0.34625,-0.00135782557711489
-0.345,-0.00141369233816829
-0.34375,-0.00145762391931419
-0.3425,-0.00148253145421604
-0.34125,-0.00148445407786342
-0.34,-0.00146341866213854
-0.33875,-0.00142339684544744
-0.3375,-0.00137144339934127
-0.33625,-0.00131623034737895
-0.335,-0.00126623925416515
-0.33375,-0.00122795635933649
-0.3325,-0.00120449314087535
-0.33125,-0.00119498304081536
-0.33,-0.0011948758832722
-0.32875,-0.00119702553773398
-0.3275,-0.00119334232450156
-0.32625,-0.00117669186778149
-0.325,-0.00114261318736296
-0.32375,-0.00109041273511863
-0.3225,-0.00102337622157688
-0.32125,-0.00094811602271442
-0.32,-0.000873245485063777
-0.31875,-0.000807627797514431
-0.3175,-0.000758511736885497
-0.31625,-0.000729961526112833
-0.315,-0.000721977416496301
-0.31375,-0.000730513179102775
-0.3125,-0.000748349139476683
-0.31125,-0.00076662238241231
-0.31,-0.000776729249414707
-0.30875,-0.000772208108708335
-0.3075,-0.000750139513254765
-0.30625,-0.000711714557586151
-0.305,-0.000661892575334885
-0.30375,-0.000608295495228667
-0.3025,-0.000559574438356391
-0.30125,-0.000523534960581102
-0.3,-0.000505401902391041
-0.29875,-0.000506646442155566
-0.2975,-0.000524662179144717
-0.29625,-0.000553328449447092
-0.295,-0.000584307570812742
-0.29375,-0.000608824900495623
-0.2925,-0.000619581504708169
-0.29125,-0.000612348373033993
-0.29,-0.000586834110600216
-0.28875,-0.000546652146676991
-0.2875,-0.000498470802348201
-0.28625,-0.000450557613890593
-0.285,-0.000410978809941436
-0.28375,-0.000385799784873454
-0.2825,-0.00037771037392472
-0.28125,-0.00038542502037924
-0.28,-0.000403978205449467
-0.27875,-0.000425811082098076
-0.2775,-0.000442424092989097
-0.27625,-0.000446282892613683
-0.275,-0.00043255312786139
-0.27375,-0.000400215990882702
-0.2725,-0.000352297698604338
-0.27125,-0.000295225181605585
-0.27,-0.000237498723634053
-0.26875,-0.000187931738520365
-0.2675,-0.000153774248543084
-0.26625,-0.000139131385634195
-0.265,-0.000144075204364706
-0.26375,-0.000164655821576017
-0.2625,-0.000193771047653569
-0.26125,-0.000222696811701914
-0.26,-0.000242990183891698
-0.25875,-0.000248365264231638
-0.2575,-0.000236074200128837
-0.25625,-0.000207448361731219
-0.255,-0.000167530206821902
-0.25375,-0.00012394967395428
-0.2525,-8.52829070344517e-05
-0.25125,-5.91813789574027e-05
-0.25,-5.065467818855e-05
-0.24875,-6.09301832631323e-05
-0.2475,-8.7173733529407e-05
-0.24625,-0.000123103988725215
-0.245,-0.000160339743112429
-0.24375,-0.000190218849311594
-0.2425,-0.000205725122817022
-0.24125,-0.000203061506472953
-0.24,-0.00018246318472838
-0.23875,-0.000148091256669014
-0.2375,-0.000107106949561624
-0.23625,-6.81485212516679e-05
-0.235,-3.94786121462442e-05
-0.23375,-2.7154851230815e-05
-0.2325,-3.36531547324897e-05
-0.23125,-5.72946106079761e-05
-0.23,-9.25923717024225e-05
-0.22875,-0.000131407310403497
-0.2275,-0.000164674471168224
-0.22625,-0.000184367025202065
-0.225,-0.000185253545502034
-0.22375,-0.000165997578494068
-0.2225,-0.000129348511053892
-0.22125,-8.14553462535699e-05
-0.22,-3.05053938567911e-05
-0.21875,1.50565933697866e-05
-0.2175,4.84075187511072e-05
-0.21625,6.59083520855296e-05
-0.215,6.79526211508267e-05
-0.21375,5.89008552956016e-05
-0.2125,4.61498281054119e-05
-0.21125,3.85434062746342e-05
-0.21,4.44254046234847e-05
-0.20875,6.97490010799244e-05
-0.2075,0.00011671849678895
-0.20625,0.000183300265911521
-0.205,0.000263654030629751
-0.20375,0.000349316569286627
-0.2025,0.000430894729885542
-0.20125,0.000499977659038602
-0.2,0.000550883303897177
-0.19875,0.000581816048694266
-0.1975,0.000595152581067821
-0.19625,0.000596823057660516
-0.195,0.000594947730249511
-0.19375,0.000597993762341899
-0.1925,0.000612824317790166
-0.19125,0.000643110140996969
