t,low_f
-5.12,0.0980852535280039
-5.11875,0.0861189176133317
-5.1175,0.0745315286283253
-5.11625,0.0634431184728109
-5.115,0.0529620706145306
-5.11375,0.0431821727970463
-5.1125,0.0341797514177034
-5.11125,0.0260111201583439
-5.11,0.0187107721000685
-5.10875,0.0122907966849363
-5.1075,0.00674178534076165
-5.10625,0.00203516298122688
-5.105,-0.00187332205655066
-5.10375,-0.0050393072493698
-5.1025,-0.00752520855694145
-5.10125,-0.00939592867416113
-5.1,-0.0107154903369892
-5.09875,-0.0115449477722697
-5.0975,-0.0119416167745295
-5.09625,-0.0119594559981424
-5.095,-0.0116502773971642
-5.09375,-0.011065269191768
-5.0925,-0.0102561930882286
-5.09125,-0.00927575567923952
-5.09,-0.00817698565532458
-5.08875,-0.00701171931661829
-5.0875,-0.00582842104605329
-5.08625,-0.00466967881973088
-5.085,-0.00356988212509583
-5.08375,-0.00255365517381948
-5.0825,-0.00163544187132245
-5.08125,-0.000820331292474158
-5.08,-0.0001059763427444
-5.07875,0.000514690438300891
-5.0775,0.00105041575328738
-5.07625,0.00150889317259485
-5.075,0.00189492136759888
-5.07375,0.00220973607700994
-5.0725,0.00245148190017488
-5.07125,0.002616622915448
-5.07,0.00270198815467072
-5.06875,0.00270698573730117
-5.0675,0.00263539145093226
-5.06625,0.00249621066611782
-5.065,0.00230340204079458
-5.06375,0.00207452732698543
-5.0625,0.00182855968026142
-5.06125,0.00158324128320895
-5.06,0.00135256586795918
-5.05875,0.00114500182345511
-5.0575,0.000962842436349094
-5.05625,0.000802731295393639
-5.055,0.000657193773726048
-5.05375,0.000516902384127159
-5.0525,0.000373263380112081
-5.05125,0.000220749883754583
-5.05,5.84167035178419e-05
-5.04875,-0.00010972242272063
-5.0475,-0.000275471583805528
-5.04625,-0.00042819993129644
-5.045,-0.000557226208111534
-5.04375,-0.000654317314422313
-5.0425,-0.000715663103200868
-5.04125,-0.000742835948964871
-5.04,-0.000742580602913949
-5.03875,-0.000725552425867898
-5.0375,-0.000704246970065024
-5.03625,-0.0006904785766637
-5.035,-0.000692934004843897
-5.03375,-0.000715392574293065
-5.0325,-0.000756027358108537
-5.03125,-0.000807893895132604
-5.03,-0.000860475746479895
-5.02875,-0.000902004819619114
-5.0275,-0.000922095339940711
-5.02625,-0.000914065824116057
-5.025,-0.000876374460772978
-5.02375,-0.000812891564246184
-5.0225,-0.0007320498145394
-5.02125,-0.000645079675457008
-5.02,-0.0005636385729496
-5.01875,-0.000497302325171945
-5.0175,-0.000451514083431471
-5.01625,-0.000426492933483189
-5.015,-0.000417314625457687
-5.01375,-0.000415099633694271
-5.0125,-0.000409073751332398
-5.01125,-0.000389107753699261
-5.01,-0.000348158637186869
-5.00875,-0.000283993798466667
-5.0075,-0.00019980709228101
-5.00625,-0.000103675633595192
-5.005,-7.02650062144181e-06
-5.00375,7.7613515949746e-05
-5.0025,0.000139173794019037
-5.00125,0.000170330478321304
-5,0.000168971386837399
-4.99875,0.000138520016290238
-4.9975,8.71059578494314e-05
-4.99625,2.57672058312689e-05
-4.995,-3.39848197680749e-05
-4.99375,-8.27201033430179e-05
-4.9925,-0.000115130845005894
-4.99125,-0.000131065251896219
-4.99,-0.000135395088694765
-4.98875,-0.000136830876469192
-4.9875,-0.000145924253866139
-4.98625,-0.000172611153934253
-4.985,-0.000223818169245545
-4.98375,-0.000301722276202924
-4.9825,-0.0004030789712306
-4.98125,-0.000519725135129416
-4.98,-0.000640124627359933
-4.97875,-0.000751674328330103
-4.9775,-0.000843311757283491
-4.97625,-0.000907802349439288
-4.975,-0.00094313611997626
-4.97375,-0.000952761886564742
-4.9725,-0.000944703648230645
-4.97125,-0.000929769290510805
-4.97,-0.000919161863511436
-4.96875,-0.000921962548619634
-4.9675,-0.000943080389253388
-4.96625,-0.00098216977699453
-4.965,-0.00103372554364211
-4.96375,-0.00108828749174522
-4.9625,-0.00113451711266422
-4.96125,-0.0011617519524508
-4.96,-0.00116246003373098
-4.95875,-0.00113397672602086
-4.9575,-0.00107913443172749
-4.95625,-0.00100573394520196
-4.955,-0.000925024870559751
-4.95375,-0.000849465899596171
-4.9525,-0.000790174148354312
-4.95125,-0.000754633194094918
-4.95,-0.000745220758476449
-4.94875,-0.000758873671340723
-4.9475,-0.000787905766378098
-4.94625,-0.000821795136618692
-4.945,-0.000849610235896946
-4.94375,-0.000862556660024509
-4.9425,-0.000856009529116833
-4.94125,-0.000830536717174922
-4.94,-0.000791751658572138
-4.93875,-0.000749108399181421
-4.9375,-0.000713879058958852
-4.93625,-0.000696670056580504
-4.935,-0.000705003664219822
-4.93375,-0.000741559413770537
-4.9325,-0.000803492692810476
-4.93125,-0.000882935961354405
-4.93,-0.00096854821493049
-4.92875,-0.00104782886026685
-4.9275,-0.00110973704543576
-4.92625,-0.00114699495585345
-4.925,-0.00115750391508931
-4.92375,-0.00114459870023918
-4.9225,-0.00111618178588226
-4.92125,-0.00108294547621021
-4.92,-0.00105598943892144
-4.91875,-0.00104430029559769
-4.9175,-0.00105268909965238
-4.91625,-0.00108069206219661
-4.915,-0.0011226494902813
-4.91375,-0.00116889799933869
-4.9125,-0.00120783969333809
-4.91125,-0.00122849370426503
-4.91,-0.00122295221043934
-4.90875,-0.00118812201713179
-4.9075,-0.00112635965299789
-4.90625,-0.00104494714710392
-4.905,-0.000954575770318095
-4.90375,-0.000867109147946808
-4.9025,-0.000793036247367799
-4.90125,-0.000739186595495555
-4.9,-0.000707271907892779
-4.89875,-0.000693573442912003
-4.8975,-0.000689789649825031
-4.89625,-0.000684857083557108
-4.895,-0.000667409667595174
-4.89375,-0.000628354448297953
-4.8925,-0.00056292689261951
-4.89125,-0.000471731000337862
-4.89,-0.000360604238504189
-4.88875,-0.000239421619091444
-4.8875,-0.000120079523098876
-4.88625,-1.40130132846201e-05
-4.885,7.02317265063723e-05
-4.88375,0.000128778803655196
-4.8825,0.000163139572822448
-4.88125,0.0001797548080643
-4.88,0.000188490490829878
-4.87875,0.000200365965932317
-4.8775,0.000224969771288543
-4.87625,0.000268183101675464
-4.875,0.000330782959600838
-4.87375,0.000408201998243289
-4.8725,0.000491406462457393
-4.87125,0.000568687277310372
-4.87,0.000628058137014842
-4.86875,0.000659793168548374
-4.8675,0.000658506689278874
-4.86625,0.00062426811237146
-4.865,0.000562535581934884
-4.86375,0.00048297194623158
-4.8625,0.000397377526386393
-4.86125,0.000317131439958814
-4.86,0.000250717342440867
-4.85875,0.000201953629770046
-4.8575,0.000169323946908292
-4.85625,0.000146465166641313
-4.855,0.000123648832089137
-4.85375,8.99866551205337e-05
-4.8525,3.59514958877163e-05
-4.85125,-4.43561007629664e-05
-4.85,-0.000151758400833755
-4.84875,-0.000281687826391718
-4.8475,-0.000425028068129335
-4.84625,-0.000569925161852281
-4.845,-0.00070423682073749
-4.84375,-0.000818100315439038
-4.8425,-0.000905982153379438
-4.84125,-0.000967713623661408
-4.84,-0.00100835118757508
-4.83875,-0.00103697581017424
-4.8375,-0.00106467208256961
-4.83625,-0.0011020417427353
-4.835,-0.00115677462589125
-4.83375,-0.00123186893917006
-4.8325,-0.00132491926967216
-4.83125,-0.00142858268675
-4.83,-0.00153209441089802
-4.82875,-0.0016235537559809
-4.8275,-0.00169252454866905
-4.82625,-0.00173232913402623
-4.825,-0.00174146141477847
-4.82375,-0.00172383911281263
-4.8225,-0.00168793358816148
-4.82125,-0.00164498476259502
-4.82,-0.00160661002954569
-4.81875,-0.00158227536972249
-4.8175,-0.00157722547654384
-4.81625,-0.00159137856132269
-4.815,-0.00161940029673875
-4.81375,-0.00165189128258006
-4.8125,-0.00167745287410358
-4.81125,-0.00168524021883299
-4.81,-0.00166742744043448
-4.80875,-0.00162096545304859
-4.8075,-0.00154823721845096
-4.80625,-0.00145655423940386
-4.805,-0.00135665860925326
-4.80375,-0.00126049899145387
-4.8025,-0.00117868809001505
-4.80125,-0.00111821222916324
-4.8,-0.00108095757102511
-4.79875,-0.00106337455778644
-4.7975,-0.00105729887084984
-4.79625,-0.00105174681716911
-4.795,-0.00103535574109981
-4.79375,-0.00099895179157683
-4.7925,-0.000937608405760317
-4.79125,-0.00085169665444303
-4.79,-0.000746761682181098
-4.78875,-0.000632335640934172
-4.7875,-0.000519926762288599
-4.78625,-0.000420539435944919
-4.785,-0.000342249101249522
-4.78375,-0.000288425463081903
-4.7825,-0.000257024427062775
-4.78125,-0.000241059803639089
-4.78,-0.000230124774719767
-4.77875,-0.000212680666829148
-4.7775,-0.00017865422487658
-4.77625,-0.000121722510989397
-4.775,-4.07147185214354e-05
-4.77375,6.01443408379692e-05
-4.7725,0.00017210894402786
-4.77125,0.000283699177933582
-4.77,0.000383093489514314
-4.76875,0.00046066119389733
-4.7675,0.000511039416821354
-4.76625,0.000534248294244427
-4.765,0.000535626797171665
-4.76375,0.000524650230597928
-4.7625,0.000512862665857356
-4.76125,0.000511318775365827
-4.76,0.000528115795415393
-4.75875,0.000566637575251547
-4.7575,0.000624903131302918
-4.75625,0.000696070964296216
-4.755,0.000769931039883073
-4.75375,0.000835114172178577
-4.7525,0.000881611182143176
-4.75125,0.000903032813936101
-4.75,0.00089804804403934
-4.74875,0.000870681692415376
-4.7475,0.000829457313097965
-4.74625,0.000785573745087305
-4.745,0.000750451212646047
-4.74375,0.000733169024793585
-4.7425,0.000738431398759821
-4.74125,0.000765554540367408
-4.74,0.000808632125370517
-4.73875,0.000857762113354721
-4.7375,0.000901092917628603
-4.73625,0.00092733502975978
-4.735,0.000928216082275431
-4.73375,0.000900286377151639
-4.7325,0.000845653450170288
-4.73125,0.000771532726772452
-4.73,0.000688741440507135
-4.72875,0.00060941385861129
-4.7275,0.000544391751376198
-4.72625,0.000500909402912192
-4.725,0.00048114814375504
-4.72375,0.000481943468421841
-4.7225,0.000495611610133569
-4.72125,0.000511693606024066
-4.72,0.000519312581715021
-4.71875,0.00050967857332853
-4.7175,0.000478143762216322
-4.71625,0.000425299762651505
-4.715,0.000356899366212381
-4.71375,0.000282666693411141
-4.7125,0.000214231363792815
-4.71125,0.000162579458035359
-4.71,0.000135597214269134
-4.70875,0.000136326085929788
-4.7075,0.000162322647147464
-4.70625,0.000206178233934407
-4.705,0.000257032508606368
-4.70375,0.000302810348935753
-4.7025,0.000332772976014632
-4.70125,0.000339812751607404
-4.7,0.00032192746340577
-4.69875,0.00028255275705408
-4.6975,0.000229735838151573
-4.69625,0.000174335118392886
-4.695,0.000127577206730121
-4.69375,9.84894520494465e-05
-4.6925,9.18446236431676e-05
-4.69125,0.000107116498093744
-4.69,0.000138611440377888
-4.68875,0.000176664385395084
-4.6875,0.000209659135924725
-4.68625,0.000226519220674337
-4.685,0.000219147130100042
-4.68375,0.000184218802813045
-4.6825,0.000123911791927765
-4.68125,4.54540428778586e-05
-4.68,-4.03797314795845e-05
-4.67875,-0.000121546597881874
-4.6775,-0.000187336036809626
-4.67625,-0.000230674209779243
-4.675,-0.000249556829141152
-4.67375,-0.000247328138175638
-4.6725,-0.000231841836600319
-4.67125,-0.000213708773632658
-4.67,-0.000203935659843496
-4.66875,-0.000211417985156499
-4.6675,-0.000240881928619518
-4.66625,-0.00029178271216627
-4.665,-0.000358377201697349
-4.66375,-0.000430907809188637
-4.6625,-0.00049766428488386
-4.66125,-0.000547534340963672
-4.66,-0.000572470482285401
-4.65875,-0.000569253912135251
-4.6575,-0.00054015737935381
-4.65625,-0.000492446630408556
-4.655,-0.00043688241684204
-4.65375,-0.000385491378124032
-4.6525,-0.000349013950214582
-4.65125,-0.000334600195039798
-4.65,-0.000344319000863896
-4.64875,-0.00037480436468939
-4.6475,-0.000418059344447161
-4.64625,-0.00046323750209788
-4.645,-0.000499075080106807
-4.64375,-0.000516459461531267
-4.6425,-0.000510497808618887
-4.64125,-0.000481583042235234
-4.64,-0.00043528568358976
-4.63875,-0.00038117770305599
-4.6375,-0.000330825145534414
-4.63625,-0.000295301708776691
-4.635,-0.000282745451159341
-4.63375,-0.000296553960707775
-4.6325,-0.00033464405062639
-4.63125,-0.000389893923720564
-4.63,-0.00045164368508711
-4.62875,-0.000507977022869531
-4.6275,-0.000548329835212423
-4.62625,-0.000565805312307374
-4.625,-0.000558618235340039
-4.62375,-0.00053038306705352
-4.6225,-0.000489277853988351
-4.62125,-0.000446286139411247
-4.62,-0.000412821861204612
-4.61875,-0.000398203460906397
-4.6175,-0.000407574721768445
-4.61625,-0.000440781264084012
-4.615,-0.000492421364201448
-4.61375,-0.000553009601684742
-4.6125,-0.00061102292339183
-4.61125,-0.000655443584271143
-4.61,-0.000678227435097286
-4.60875,-0.000676075426388943
-4.6075,-0.000651105334033777
-4.60625,-0.000610360867927778
-4.605,-0.00056432100447237
-4.60375,-0.000524679197341017
-4.6025,-0.000501800560311072
-4.60125,-0.000502427978805658
-4.6,-0.000528204048703405
-4.59875,-0.000575333711360223
-4.5975,-0.000635406724235324
-4.59625,-0.000697196125559048
-4.595,-0.000749102281923917
-4.59375,-0.000781725931498425
-4.5925,-0.000789934446208506
-4.59125,-0.000773921822019566
-4.59,-0.000739095766553177
-4.58875,-0.000694901347770482
-4.5875,-0.000652818326801991
-4.58625,-0.000623882772428763
-4.585,-0.000616253213036861
-4.58375,-0.000633414872002881
-4.5825,-0.000673445603940307
-4.58125,-0.000729458046256702
-4.58,-0.000791091369954566
-4.57875,-0.000846776277971911
-4.5775,-0.00088632262767235
-4.57625,-0.000903212294216887
-4.575,-0.000896020827304092
-4.57375,-0.000868682866151873
-4.5725,-0.000829635796565421
-4.57125,-0.000790047515778958
-4.57,-0.000761435047846512
-4.56875,-0.000753138517217046
-4.5675,-0.000770244467784204
-4.56625,-0.000812465618496664
-4.565,-0.000874197091586745
-4.56375,-0.000945689804485028
-4.5625,-0.00101511058973341
-4.56125,-0.00107110118456066
-4.56,-0.00110526217441322
-4.55875,-0.00111393921263199
-4.5575,-0.00109890925118579
-4.55625,-0.0010669036349845
-4.555,-0.00102812907061925
-4.55375,-0.000994054440011679
-4.5525,-0.000974870886251918
-4.55125,-0.000977196554745429
-4.55,-0.00100259472284665
-4.54875,-0.00104723294923058
-4.5475,-0.00110270479631706
-4.54625,-0.00115783139288069
-4.545,-0.00120111159155256
-4.54375,-0.0012233012773249
-4.5425,-0.00121948228706593
-4.54125,-0.0011901183733226
-4.54,-0.00114093062905897
-4.53875,-0.00108170396656236
-4.5375,-0.00102426579465335
-4.53625,-0.000979990303187698
-4.535,-0.000957348704505432
-4.53375,-0.000960098031365314
-4.5325,-0.000986532675356847
-4.53125,-0.00102991550326609
-4.53,-0.00107996362978489
-4.52875,-0.00112511221014703
-4.5275,-0.00115510527884253
-4.52625,-0.00116329742878136
-4.525,-0.00114809067803024
-4.52375,-0.00111321966999
-4.5225,-0.00106691605277868
-4.52125,-0.00102015419587165
-4.52,-0.000984282003100927
-4.51875,-0.000968500102244507
-4.5175,-0.000977784800522116
-4.51625,-0.00101176473152712
-4.515,-0.0010647730257527
-4.51375,-0.00112701541659299
-4.5125,-0.00118662292373664
-4.51125,-0.00123220183911716
-4.51,-0.00125530918833782
-4.50875,-0.00125223251239512
-4.5075,-0.00122467210318651
-4.50625,-0.00117926325251237
-4.505,-0.00112610030139095
-4.50375,-0.00107652931290889
-4.5025,-0.00104061356470083
-4.50125,-0.00102483991825533
-4.5,-0.00103063288878889
-4.49875,-0.00105400387059314
-4.4975,-0.00108635894440484
-4.49625,-0.00111628693233142
-4.495,-0.00113200289827966
-4.49375,-0.00112393382571902
-4.4925,-0.00108680933351394
-4.49125,-0.00102075165302634
-4.49,-0.000931190209433787
-4.48875,-0.000827704723157779
-4.4875,-0.000722031919538724
-4.48625,-0.000625585772652153
-4.485,-0.000547010879190784
-4.48375,-0.000490363138215236
-4.4825,-0.000454344872066776
-4.48125,-0.000432714678838915
-4.48,-0.00041575129260605
-4.47875,-0.000392499763662787
-4.4775,-0.000353352382384402
-4.47625,-0.00029234768630239
-4.475,-0.00020860863490339
-4.47375,-0.000106629506028025
-4.4725,4.56043645410921e-06
-4.47125,0.000113155857051575
-4.47,0.000206953141960122
-4.46875,0.000275882936835717
-4.4675,0.000314100979539471
-4.46625,0.000321126819633947
-4.465,0.00030180899274525
-4.46375,0.000265176711785748
-4.4625,0.000222409091872618
-4.46125,0.000184307776286103
-4.46,0.000158842703592309
-4.45875,0.000149390429681051
-4.4575,0.000154066024008038
-4.45625,0.000166210303613658
-4.455,0.000175869310603726
-4.45375,0.000171997746693353
-4.4525,0.000144981823675274
-4.45125,8.89148848601842e-05
-4.45,3.06166992506913e-06
-4.44875,-0.00010781335985721
-4.4475,-0.000234274723096024
-4.44625,-0.000364021255823903
-4.445,-0.000484341657854131
-4.44375,-0.000584706808207104
-4.4425,-0.000658863058610569
-4.44125,-0.000705922626782618
-4.44,-0.000730278627780807
-4.43875,-0.000740451295804043
-4.4375,-0.000747102511645048
-4.43625,-0.000760568689460132
-4.435,-0.000788430547943668
-4.43375,-0.000833713169096969
-4.4325,-0.000894142750391958
-4.43125,-0.000962578523521406
-4.43,-0.00102849611594771
-4.42875,-0.00108024718683696
-4.4275,-0.00110764466214606
-4.42625,-0.00110425553314088
-4.425,-0.00106882423323751
-4.42375,-0.00100554129461631
-4.4225,-0.000923190824910756
-4.42125,-0.000833380172629271
-4.42,-0.000748155114566687
-4.41875,-0.000677462906226439
-4.4175,-0.000627058017412246
-4.41625,-0.000597360771643006
-4.415,-0.000583492284282476
-4.41375,-0.00057642879597363
-4.4125,-0.000565046269158806
-4.41125,-0.000538668159028045
-4.41,-0.000489542769566212
-4.40875,-0.000414626056852506
-4.4075,-0.000316264537627121
-4.40625,-0.000201713418141112
-4.405,-8.16518393964461e-05
-4.40375,3.20355834834494e-05
-4.4025,0.000128804033785673
-4.40125,0.000201750505678787
-4.4,0.000249103676445043
-4.39875,0.000274572078230115
-4.3975,0.000286527052703654
-4.39625,0.000296202256058062
-4.395,0.000315239795712959
-4.39375,0.000353100044439122
-4.3925,0.000414973031095937
-4.39125,0.000500695800841759
-4.39,0.000604847907608609
-4.38875,0.000717917915383024
-4.3875,0.000828302934015717
-4.38625,0.000924790212225252
-4.385,0.000999001896604165
-4.38375,0.00104720949184932
-4.3825,0.0010710906516764
-4.38125,0.00107730778810826
-4.38,0.00107603037301688
-4.37875,0.00107867514738575
-4.3775,0.00109531445215837
-4.37625,0.00113237105974257
-4.375,0.00119117890988427
-4.37375,0.00126769906264346
-4.3725,0.00135336007079276
-4.37125,0.00143681912312696
-4.37,0.00150633875866875
-4.36875,0.00155231558995374
-4.3675,0.00156936596086395
-4.36625,0.0015574581650323
-4.365,0.00152186793604941
-4.36375,0.00147201528232423
-4.3625,0.00141941355958027
-4.36125,0.00137511903316364
-4.36,0.00134725437502215
-4.35875,0.0013392282291965
-4.3575,0.00134905280784998
-4.35625,0.00136982188230936
-4.355,0.00139118736943025
-4.35375,0.00140156789504322
-4.3525,0.00139068635343652
-4.35125,0.00135187014915491
-4.35,0.00128354741562927
-4.34875,0.00118960984742375
-4.3475,0.00107861733024176
-4.34625,0.00096202342341393
-4.345,0.000851747175302762
-4.34375,0.000757602627662999
-4.3425,0.000685219761267009
-4.34125,0.000634960587191913
-4.34,0.00060200484420315
-4.33875,0.000577501796901945
-4.3375,0.000550553514176831
-4.33625,0.000510680793499729
-4.335,0.000450253861310615
-4.33375,0.000366294852689652
-4.3325,0.000261224784559564
-4.33125,0.000142434222937378
-4.33,2.07991091955194e-05
-4.32875,-9.15846382903738e-05
-4.3275,-0.0001839984707685
-4.32625,-0.000249412753161782
-4.325,-0.000285933171575316
-4.32375,-0.000297093069016833
-4.3225,-0.000291023023827443
-4.32125,-0.000278700533649044
-4.32,-0.000271582909175866
-4.31875,-0.000279085358645164
-4.3175,-0.000306499381061243
-4.31625,-0.000353862550132386
-4.315,-0.000416002914010781
-4.31375,-0.000483699180879307
-4.3125,-0.000545725621097278
-4.31125,-0.000591394397200151
-4.31,-0.000613022708961122
-4.30875,-0.000607701652313291
-4.3075,-0.000577962626248465
-4.30625,-0.000531277878425485
-4.305,-0.00047855830536319
-4.30375,-0.000431917934689529
-4.3025,-0.00040211110694343
-4.30125,-0.000396211464786042
-4.3,-0.000416101775846399
-4.29875,-0.000458105090082629
-4.2975,-0.000513781848789712
-4.29625,-0.000571713156402773
-4.295,-0.000619943468417393
-4.29375,-0.00064856882625085
-4.2925,-0.00065183384409348
-4.29125,-0.00062923224132083
-4.29,-0.000585437851213008
-4.28875,-0.000529173177292163
-4.2875,-0.000471253148976044
-4.28625,-0.000422152618341102
-4.285,-0.000389611610637235
-4.28375,-0.000376866132643779
-4.2825,-0.000381927207851413
-4.28125,-0.00039802529732892
-4.28,-0.00041509590142195
-4.27875,-0.000422031052744989
-4.2775,-0.000409247782758207
-4.27625,-0.000370959408187794
-4.275,-0.000306575959112923
-4.27375,-0.000220949439061976
-4.2725,-0.000123497969419227
-4.27125,-2.64135855353245e-05
-4.27,5.77426777744581e-05
-4.26875,0.000118597886047144
-4.2675,0.000150082728551621
-4.26625,0.000151593553220938
-4.265,0.000127975613167687
-4.26375,8.83846958442693e-05
-4.2625,4.42564751262705e-05
-4.26125,6.76779703587019e-06
-4.26,-1.56411992086086e-05
-4.25875,-1.90626570719521e-05
-4.2575,-4.82806544964666e-06
-4.25625,2.0940820972238e-05
-4.255,4.87781094024423e-05
-4.25375,6.80508801637956e-05
-4.2525,6.94647049491652e-05
-4.25125,4.73316860813535e-05
-4.25,1.03366130920841e-06
-4.24875,-6.46500243478332e-05
-4.2475,-0.000140374969962778
-4.24625,-0.000214043321260916
-4.245,-0.000273265260788141
-4.24375,-0.000307953787643991
-4.2425,-0.000312414235388597
-4.24125,-0.000286423805285279
-4.24,-0.000235130447845202
-4.23875,-0.000167880335416103
-4.2375,-9.62123276015124e-05
-4.23625,-3.13688198332965e-05
-4.235,1.81594284544509e-05
-4.23375,4.84601136031588e-05
-4.2325,6.09687282753363e-05
-4.23125,6.20596922672758e-05
-4.23,6.15823058116696e-05
-4.22875,7.06157238992824e-05
-4.2275,9.88901374693888e-05
-4.22625,0.000152488407942061
-4.225,0.000232406218678256
-4.22375,0.000334262299648517
-4.2225,0.000449131201408099
-4.22125,0.000565297596365843
-4.22,0.000670629359070055
-4.21875,0.000755108294483029
-4.2175,0.000812924649348356
-4.21625,0.000843624298475904
-4.215,0.000852083110737836
-4.21375,0.000847363201167788
-4.2125,0.000840677270177813
-4.21125,0.00084284421432565
-4.21,0.000861807030765933
-4.20875,0.00090083767638519
-4.2075,0.000957836405815222
-4.20625,0.00102579248577499
-4.205,0.00109424639489379
-4.20375,0.0011514875273509
-4.2025,0.00118708529489412
-4.20125,0.00119418786889897
-4.2,0.00117102057706407
-4.19875,0.00112125227029109
-4.1975,0.00105320386763385
-4.19625,0.000978078499719203
-4.195,0.000907538603771105
-4.19375,0.000851140861678105
-4.1925,0.000814263281540525
-4.19125,0.000797028808138067
-4.19,0.00079439882166368
-4.18875,0.000797330769489157
-4.1875,0.000794764615778345
-4.18625,0.000776091007655798
-4.185,0.000733585136981763
-4.18375,0.000664213272102994
-4.1825,0.000570383721017008
-4.18125,0.000459521300226375
-4.18,0.000342587394125015
-4.17875,0.000231818835211922
-4.1775,0.00013813237512178
-4.17625,6.88096239890049e-05
-4.175,2.60413411258544e-05
-4.17375,6.62166805769766e-06
-4.1725,2.76212782424148e-06
-4.17125,3.82299382412209e-06
-4.17,-1.33849027078746e-06
-4.16875,-2.18595137119099e-05
-4.1675,-6.27931530447317e-05
-4.16625,-0.00012397106358352
-4.165,-0.000200034889648854
-4.16375,-0.000281582544857488
-4.1625,-0.000357202403160522
-4.16125,-0.000416011666199763
-4.16,-0.000450128812092524
-4.15875,-0.000456457228969724
-4.1575,-0.000437373755629373
-4.15625,-0.000400255722550189
-4.155,-0.000356006599277447
-4.15375,-0.000316845855021264
-4.1525,-0.000293763700724568
-4.15125,-0.000294204933612586
-4.15,-0.000320549912035578
-4.14875,-0.000369726532945771
-4.1475,-0.000433982549947121
-4.14625,-0.000502642051941419
-4.145,-0.000564522100460882
-4.14375,-0.000610498184398348
-4.1425,-0.000635582824694948
-4.14125,-0.000640010427777854
-4.14,-0.00062915176867127
-4.13875,-0.000612362011454996
-4.1375,-0.00060099739128682
-4.13625,-0.000605946502110368
-4.135,-0.000635189614609197
-4.13375,-0.000691978363535878
-4.1325,-0.000774067341005363
-4.13125,-0.00087412357802671
-4.13,-0.000981195223388095
-4.12875,-0.00108296688802945
-4.1275,-0.00116835456139291
-4.12625,-0.00122982578804988
-4.125,-0.00126486687923858
-4.12375,-0.00127630468728847
-4.1225,-0.00127150861612469
-4.12125,-0.00126067179816582
-4.12,-0.00125447238738783
-4.11875,-0.00126157417284111
-4.1175,-0.00128655869794127
-4.11625,-0.0013288000525797
-4.115,-0.00138250889358021
-4.11375,-0.00143789048217562
-4.1125,-0.00148318908815383
-4.11125,-0.00150723715045219
-4.11,-0.00150194395329181
-4.10875,-0.00146410459778537
-4.1075,-0.00139612222150171
-4.10625,-0.00130557319374287
-4.105,-0.00120377113771673
-4.10375,-0.00110358986712958
-4.1025,-0.00101693641755798
-4.10125,-0.000952426138224502
-4.1,-0.000913818353959824
-4.09875,-0.000899543525252371
-4.0975,-0.000903353775880007
-4.09625,-0.000915927441205585
-4.095,-0.000927119091486412
-4.09375,-0.000928372089777612
-4.0925,-0.000914692532749666
-4.09125,-0.000885703187604364
-4.09,-0.000845609044650921
-4.08875,-0.000802173178090501
-4.0875,-0.000764925095223096
-4.08625,-0.000742924280734484
-4.085,-0.000742553790685314
-4.08375,-0.000765889872871852
-4.0825,-0.000810043046728736
-4.08125,-0.00086758103118253
-4.08,-0.000927917419211954
-4.07875,-0.000979412260286884
-4.0775,-0.00101177448098339
-4.07625,-0.00101820074022253
-4.075,-0.000996714500932098
-4.07375,-0.00095043490248149
-4.0725,-0.000886806248434228
-4.07125,-0.000815980768562039
-4.07,-0.000748634421664421
-4.06875,-0.000693635665282239
-4.0675,-0.000656112357862223
-4.06625,-0.000636391994380753
-4.065,-0.000630026797762005
-4.06375,-0.000628850302115699
-4.0625,-0.00062285110453881
-4.06125,-0.000602509231124345
-4.06,-0.000561071241232481
-4.05875,-0.000496188523558548
-4.0575,-0.000410541814734832
-4.05625,-0.000311393311952625
-4.055,-0.000209220389223438
-4.05375,-0.000115679106258714
-4.0525,-4.12649788443937e-05
-4.05125,6.81184256549273e-06
-4.05,2.60143852096926e-05
-4.04875,1.88228470809507e-05
-4.0475,-7.98873472490159e-06
-4.04625,-4.49762285063704e-05
-4.045,-8.22497017069838e-05
-4.04375,-0.000111829129930541
-4.0425,-0.000129546351785442
-4.04125,-0.000136024151192192
-4.04,-0.000136569862176775
-4.03875,-0.000140083632999713
-4.0375,-0.000157203046378547
-4.03625,-0.000198005442477578
-4.035,-0.000269742172010598
-4.03375,-0.000375152390748846
-4.0325,-0.000511755421399457
-4.03125,-0.000672235882868841
-4.03,-0.000845807932947289
-4.02875,-0.0010203056354342
-4.0275,-0.0011845897507881
-4.02625,-0.00133070622766365
-4.025,-0.00145525996772431
-4.02375,-0.00155973034482868
-4.0225,-0.00164975359746117
-4.02125,-0.00173355947027708
-4.02,-0.0018198388876887
-4.01875,-0.00191546052075725
-4.0175,-0.00202357912339333
-4.01625,-0.00214260964871155
-4.015,-0.0022662795027622
-4.01375,-0.00238470752601445
-4.0125,-0.00248629746877102
-4.01125,-0.00256009336428678
-4.01,-0.00259807448572231
-4.00875,-0.00259681436773494
-4.0075,-0.00255812380162001
-4.00625,-0.00248861336332744
-4.005,-0.00239832462842395
-4.00375,-0.00229867761589885
-4.0025,-0.00220010508296596
-4.00125,-0.00210989585321111
-4,-0.00203077581703714
-3.99875,-0.00196053925948208
-3.9975,-0.00189275816015757
-3.99625,-0.00181840570659694
-3.995,-0.00172809752292223
-3.99375,-0.00161448211651688
-3.9925,-0.00147418827073751
-3.99125,-0.00130884606869644
-3.99,-0.00112500538696345
-3.98875,-0.000933046020979572
-3.9875,-0.000745302521685115
-3.98625,-0.000573729788188466
-3.985,-0.000427590325901024
-3.98375,-0.000311719871013494
-3.9825,-0.000225779782301442
-3.98125,-0.0001646170647218
-3.98,-0.000119621480187279
-3.97875,-8.08259449232838e-05
-3.9775,-3.93341404076673e-05
-3.97625,1.0501841549301e-05
-3.975,6.97051715643075e-05
-3.97375,0.00013438409766887
-3.9725,0.000196506851676647
-3.97125,0.000245551623279379
-3.97,0.00027074661382353
-3.96875,0.000263467873504513
-3.9675,0.000219232462299935
-3.96625,0.000138794133569242
-3.965,2.81176110533098e-05
-3.96375,-0.000102719752456778
-3.9625,-0.000241481339581915
-3.96125,-0.00037621348159196
-3.96,-0.000497633444568306
-3.95875,-0.000600866324249222
-3.9575,-0.000686137416620104
-3.95625,-0.000758353053753508
-3.955,-0.000825723178390339
-3.95375,-0.000897679604079041
-3.9525,-0.000982469884512791
-3.95125,-0.00108496369258334
-3.95,-0.00120521790402203
-3.94875,-0.0013381263133706
-3.9475,-0.00147418588112461
-3.94625,-0.0016012108688592
-3.945,-0.00170668549222049
-3.94375,-0.00178026736143361
-3.9425,-0.00181582913194476
-3.94125,-0.00181254150976973
-3.94,-0.00177481765652467
-3.93875,-0.00171121516537536
-3.9375,-0.00163252327771977
-3.93625,-0.00154937099267865
-3.935,-0.00146985444170023
-3.93375,-0.00139776178077884
-3.9325,-0.00133182030371939
-3.93125,-0.00126609090715636
-3.93,-0.00119139269165464
-3.92875,-0.00109749089485107
-3.9275,-0.000975614488521992
-3.92625,-0.000820705658293152
-3.925,-0.000632832652666798
-3.92375,-0.000417473909129234
-3.9225,-0.000184696107970388
-3.92125,5.25786740411991e-05
-3.92,0.000280923877238443
-3.91875,0.000488930909264202
-3.9175,0.000669320411232069
-3.91625,0.000820130538419837
-3.915,0.000944747314336009
-3.91375,0.00105082341855394
-3.9125,0.00114830633181228
-3.91125,0.00124694978405871
-3.91,0.00135386519197002
-3.90875,0.00147172896676685
-3.9075,0.00159805738184143
-3.90625,0.00172562678444666
-3.905,0.00184388833876505
-3.90375,0.0019411192986537
-3.9025,0.00200691972357625
-3.90125,0.00203449951121705
-3.9,0.00202218948474378
-3.89875,0.00197383599320531
-3.8975,0.00189804096354357
-3.89625,0.00180641759508748
-3.895,0.00171118038522931
-3.89375,0.00162257373466411
-3.8925,0.00154677008228622
-3.89125,0.00148474724132656
-3.89,0.00143232944167163
-3.88875,0.00138129529676382
-3.8875,0.00132132307912956
-3.88625,0.00124243445389935
-3.885,0.00113743090605886
-3.88375,0.00100373191639359
-3.8825,0.000844175544773252
-3.88125,0.000666644658378137
-3.88,0.000482630280771152
-3.87875,0.000304999201302332
-3.8775,0.000145404997441344
-3.87625,1.19502027775287e-05
-3.875,-9.23186824524675e-05
-3.87375,-0.000169778052568669
-3.8725,-0.000227469631467433
-3.87125,-0.000275411133298873
-3.87,-0.000324270648681554
-3.86875,-0.000382856627218274
-3.8675,-0.000456012474099625
-3.86625,-0.000543433659635549
-3.865,-0.000639647105907885
-3.86375,-0.000735109364754236
-3.8625,-0.000818203157244086
-3.86125,-0.000877755852703042
-3.86,-0.000905518044611267
-3.85875,-0.000897980472316961
-3.8575,-0.000857113063925766
-3.85625,-0.000789945975044778
-3.855,-0.000707143356155825
-3.85375,-0.000620829466346325
-3.8525,-0.000542060652802342
-3.85125,-0.000478501255344335
-3.85,-0.000432873454966857
-3.84875,-0.00040252580037743
-3.8475,-0.000380161363014619
-3.84625,-0.000355556214011554
-3.845,-0.000317949865333144
-3.84375,-0.000258603860851108
-3.8425,-0.000172896851393141
-3.84125,-6.14438419263619e-05
-3.84,6.99484802860444e-05
-3.83875,0.000211396072757384
-3.8375,0.000350891736662352
-3.83625,0.000476758096506056
-3.835,0.000580092044982506
-3.83375,0.000656610412849424
-3.8325,0.00070745902437723
-3.83125,0.000738848976791166
-3.83,0.000760631532437541
-3.82875,0.000784078599445521
-3.8275,0.000819307687928427
-3.82625,0.000872958682283984
-3.825,0.000946703265012592
-3.82375,0.00103689020719255
-3.8225,0.00113530999948119
-3.82125,0.00123088464400447
-3.82,0.00131198876760711
-3.81875,0.00136895493681447
-3.8175,0.00139617935452395
-3.81625,0.00139331272303706
-3.815,0.00136529650601767
-3.81375,0.00132128704610432
-3.8125,0.00127268590334594
-3.81125,0.00123064821525146
-3.81,0.00120362445459816
-3.80875,0.00119555228614072
-3.8075,0.00120511278581246
-3.80625,0.00122613124347701
-3.805,0.00124897309946917
-3.80375,0.0012626783549849
-3.8025,0.00125744590068726
-3.80125,0.00122691557435313
-3.8,0.00116968328885805
-3.79875,0.00108970856920549
-3.7975,0.000995575158206533
-3.79625,0.000898772208988592
-3.795,0.000811309653236982
-3.79375,0.000743164864815139
-3.7925,0.000700186072713872
-3.79125,0.000682962230489535
-3.79,0.00068684845482295
-3.78875,0.000703054887283889
-3.7875,0.000720571870839692
-3.78625,0.000728595112534114
-3.785,0.000718950144117284
-3.78375,0.000687931480811707
-3.7825,0.000637120597634989
-3.78125,0.000573044451910382
-3.78,0.000505781443445618
-3.77875,0.000446776502977856
-3.7775,0.000406298287242241
-3.77625,0.000391140089193144
-3.775,0.000403142215048707
-3.77375,0.000438839725267541
-3.7725,0.000490221791190902
-3.77125,0.000546411373230807
-3.77,0.000595973899227112
-3.76875,0.00062940997702185
-3.7675,0.000641249396729919
-3.76625,0.00063123096840286
-3.765,0.000604328230574423
-3.76375,0.000569664368279954
-3.7625,0.000538535791795571
-3.76125,0.000521916591592556
-3.76,0.000527999466207177
-3.75875,0.000560390087831032
-3.7575,0.000617368995420535
-3.75625,0.000692300461975534
-3.755,0.000775037585848643
-3.75375,0.00085406575086601
-3.7525,0.00091899615630582
-3.75125,0.000962858450708371
-3.75,0.000983626966028105
-3.74875,0.00098463601368759
-3.7475,0.00097384156698378
-3.74625,0.000962097708633499
-3.745,0.000960766319973515
-3.74375,0.000979163090042959
-3.7425,0.00102246841629569
-3.74125,0.00109061078225106
-3.74,0.0011783065829734
-3.73875,0.00127616085883463
-3.7375,0.00137260176636309
-3.73625,0.00145631340680803
-3.735,0.00151866636504276
-3.73375,0.00155556096081063
-3.7325,0.00156824720352197
-3.73125,0.0015629828363134
-3.73,0.00154963539908227
-3.72875,0.00153948889322999
-3.7275,0.00154268748507309
-3.72625,0.00156591875418279
-3.725,0.00161091728929061
-3.72375,0.00167409685501369
-3.7225,0.00174730091017262
-3.72125,0.00181948155996769
-3.72,0.00187901460352641
-3.71875,0.00191620325364068
-3.7175,0.00192538555659739
-3.71625,0.00190612829601445
-3.715,0.00186326500245147
-3.71375,0.00180581865750535
-3.7125,0.00174502704778157
-3.71125,0.00169184274036341
-3.71,0.00165446356638068
-3.70875,0.00163651275398959
-3.7075,0.00163628789847081
-3.70625,0.00164716368705984
-3.705,0.00165900004827904
-3.70375,0.00166029644326336
-3.7025,0.00164069999996862
-3.70125,0.00159331210153411
-3.7,0.00151622562870866
-3.69875,0.00141294926296961
-3.6975,0.001291678371903
-3.69625,0.00116358056392915
-3.695,0.00104040962027986
-3.69375,0.00093194450748236
-3.6925,0.000843880754786303
-3.69125,0.00077668885304888
-3.69,0.000725633985982333
-3.68875,0.000681867685055677
-3.6875,0.00063436441460477
-3.68625,0.000572364568599858
-3.685,0.000487818137679001
-3.68375,0.000377237406181988
-3.6825,0.000242517594171105
-3.68125,9.05869920299967e-05
-3.68,-6.80031085882416e-05
-3.67875,-0.000221283570073304
-3.6775,-0.000358432339718793
-3.67625,-0.000472095426749926
-3.675,-0.000559884017867768
-3.67375,-0.000624742271991865
-3.6725,-0.000674198884254018
-3.67125,-0.000718693393541945
-3.67,-0.000769268167577282
-3.66875,-0.000835071445220249
-3.6675,-0.000921256264720779
-3.66625,-0.00102779328636454
-3.665,-0.00114943850186138
-3.66375,-0.00127681214777451
-3.6625,-0.00139836948276785
-3.66125,-0.00150289289002084
-3.66,-0.00158195238937869
-3.65875,-0.00163171936510896
-3.6575,-0.00165371908136251
-3.65625,-0.00165444096425927
-3.655,-0.00164395522381947
-3.65375,-0.00163379017210999
-3.6525,-0.00163445411195867
-3.65125,-0.00165314924254285
-3.65,-0.00169224110794606
-3.64875,-0.00174882705686844
-3.6475,-0.0018154468664708
-3.64625,-0.00188177125213962
-3.645,-0.00193695799443894
-3.64375,-0.00197218126402516
-3.6425,-0.0019827085588279
-3.64125,-0.00196901267954142
-3.64,-0.00193672691304171
-3.63875,-0.00189553484926204
-3.6375,-0.001857222277297
-3.63625,-0.0018332281027623
-3.635,-0.00183219731096531
-3.63375,-0.00185812512425972
-3.6325,-0.00190953173937135
-3.63125,-0.00197980511991716
-3.63,-0.00205860129286203
-3.62875,-0.00213403799778017
-3.6275,-0.00219524912034403
-3.62625,-0.0022346998257302
-3.625,-0.00224968488340445
-3.62375,-0.00224270500041988
-3.6225,-0.00222073335994201
-3.62125,-0.00219356214742129
-3.62,-0.00217151834213643
-3.61875,-0.00216299138786518
-3.6175,-0.0021723539251111
-3.61625,-0.0021987911265537
-3.615,-0.00223628032034141
-3.61375,-0.00227467994330094
-3.6125,-0.00230171060140682
-3.61125,-0.00230545903822776
-3.61,-0.00227685360122669
-3.60875,-0.00221149639786255
-3.6075,-0.00211043561625892
-3.60625,-0.00197979415100102
-3.605,-0.00182940214736872
-3.60375,-0.00167068857259047
-3.6025,-0.00151421599731645
-3.60125,-0.00136740486036693
-3.6,-0.00123300872320624
-3.59875,-0.001108682072833
-3.5975,-0.000987682507900916
-3.59625,-0.000860542308912381
-3.595,-0.000717399645469504
-3.59375,-0.000550498448772972
-3.5925,-0.000356237749611257
-3.59125,-0.000136264061594651
-3.59,0.000102582029742508
-3.58875,0.000349373562237551
-3.5875,0.000591033421005352
-3.58625,0.000814766550311973
-3.585,0.00101049293931843
-3.58375,0.00117270048659705
-3.5825,0.00130128281238234
-3.58125,0.00140122406283951
-3.58,0.00148123765051392
-3.57875,0.00155161815616026
-3.5775,0.00162173308959359
-3.57625,0.00169774807217643
-3.575,0.00178115774422561
-3.57375,0.00186842573952107
-3.5725,0.00195172247615881
-3.57125,0.00202057278449268
-3.57,0.00206412650021912
-3.56875,0.00207361359865863
-3.5675,0.00204440849185041
-3.56625,0.00197719304756049
-3.565,0.00187797920555622
-3.56375,0.00175703232359026
-3.5625,0.00162691050171721
-3.56125,0.00149998464307924
-3.56,0.00138598502926495
-3.55875,0.00129018494817502
-3.5575,0.00121263587458212
-3.55625,0.00114853725780017
-3.555,0.00108959277594885
-3.55375,0.001026098034078
-3.5525,0.000949377515981367
-3.55125,0.000854028201044358
-3.55,0.000739411113454836
-3.54875,0.000610049703180079
-3.5475,0.000474892989280201
-3.54625,0.000345609321105652
-3.545,0.000234222165984192
-3.54375,0.000150579722859062
-3.5425,0.000100277031008722
-3.54125,8.35371285540589e-05
-3.54,9.52425238433396e-05
-3.53875,0.000126028381405913
-3.5375,0.000164212147568793
-3.53625,0.000198224594038744
-3.535,0.000219043636876687
-3.53375,0.000222047910799096
-3.5325,0.000207854763122818
-3.53125,0.000182005247073345
-3.53,0.000153603830986093
-3.52875,0.000133171954035851
-3.5275,0.000130140615687104
-3.52625,0.000150574552314461
-3.525,0.000195701711060342
-3.52375,0.000261553673762634
-3.5225,0.000339706524525341
-3.52125,0.000418933514906141
-3.52,0.000487482003770882
-3.51875,0.000535536081449871
-3.5175,0.000557289567719472
-3.51625,0.000552118912768023
-3.515,0.00052461665326819
-3.51375,0.000483526599438413
-3.5125,0.000439796929165163
-3.51125,0.000404117498430372
-3.51,0.000384487784897289
-3.50875,0.000384424430553913
-3.5075,0.000402220031061117
-3.50625,0.000431334535758319
-3.505,0.000461771916750175
-3.50375,0.00048218939057074
-3.5025,0.000482358639456629
-3.50125,0.000455436191641675
-3.5,0.000399482699363807
-3.49875,0.000317888459466094
-3.4975,0.00021866214223261
-3.49625,0.000112747472495687
-3.495,1.16764835434404e-05
-3.49375,-7.49525390640553e-05
-3.4925,-0.000141554997488005
-3.49125,-0.00018768934473087
-3.49,-0.000218042503254576
-3.48875,-0.000241358988351182
-3.4875,-0.000268537462526966
-3.48625,-0.000310226552826614
-3.485,-0.000374415485569888
-3.48375,-0.000464601949520586
-3.4825,-0.000578974618358273
-3.48125,-0.00071075070512053
-3.48,-0.000849562474719267
-3.47875,-0.000983632545105585
-3.4775,-0.00110230928998894
-3.47625,-0.00119836588023041
-3.475,-0.00126948706619822
-3.47375,-0.00131863756408928
-3.4725,-0.00135332240069946
-3.47125,-0.0013839276283397
-3.47,-0.00142142931758501
-3.46875,-0.00147491152284687
-3.4675,-0.00154947290025431
-3.46625,-0.00164503747738483
-3.465,-0.00175631205148861
-3.46375,-0.00187384993968277
-3.4625,-0.00198600523656289
-3.46125,-0.00208141181933558
-3.46,-0.00215144016605322
-3.45875,-0.00219201943530468
-3.4575,-0.00220440649577362
-3.45625,-0.00219481389602494
-3.455,-0.00217304106404866
-3.45375,-0.00215036270471961
-3.4525,-0.00213705826886873
-3.45125,-0.00214012833233637
-3.45,-0.00216176026258614
-3.44875,-0.00219888754118836
-3.4475,-0.0022438874074016
-3.44625,-0.00228625355133346
-3.445,-0.00231493575875445
-3.44375,-0.00232085709292338
-3.4425,-0.00229898855384283
-3.44125,-0.00224947062403517
-3.44,-0.00217758830659117
-3.43875,-0.00209268915119418
-3.4375,-0.00200626997069488
-3.43625,-0.00192956484154643
-3.435,-0.00187112981661976
-3.43375,-0.00183500695164323
-3.4325,-0.00181990535247356
-3.43125,-0.00181953863312077
-3.43,-0.00182401119376545
-3.42875,-0.00182199341564357
-3.4275,-0.00180325914271833
-3.42625,-0.00176099005499321
-3.425,-0.00169326920983833
-3.42375,-0.00160345433469906
-3.4225,-0.00149943936540863
-3.42125,-0.00139199324225985
-3.42,-0.00129246566455444
-3.41875,-0.0012103018178163
-3.4175,-0.00115094628576986
-3.41625,-0.00111465211500994
-3.415,-0.00109643799825808
-3.41375,-0.00108715333724045
-3.4125,-0.00107543509076901
-3.41125,-0.00105019027486475
-3.41,-0.00100305605130267
-3.40875,-0.000930222812865161
-3.4075,-0.000833200440373642
-3.40625,-0.000718440331979391
-3.405,-0.000595959594698352
-3.40375,-0.000477222651549869
-3.4025,-0.000372663974429529
-3.40125,-0.000289397764659275
-3.4,-0.000229678047917187
-3.39875,-0.000190455271012741
-3.3975,-0.00016407569989271
-3.39625,-0.000139961021532497
-3.395,-0.000106958890287021
-3.39375,-5.58722453920367e-05
-3.3925,1.84552648391442e-05
-3.39125,0.000116009282496
-3.39,0.000231623311036304
-3.38875,0.000356056046403113
-3.3875,0.000477901621640831
-3.38625,0.00058600051946085
-3.385,0.000671856963584855
-3.38375,0.000731481205060745
-3.3825,0.000766217881827086
-3.38125,0.000782418055017407
-3.38,0.000790060083647685
-3.37875,0.000800578504951697
-3.3775,0.000824327234766996
-3.37625,0.000868271872223682
-3.375,0.000934488644558763
-3.37375,0.00101977988477589
-3.3725,0.00111639837153263
-3.37125,0.00121369293141676
-3.37,0.00130038792473404
-3.36875,0.00136705727661101
-3.3675,0.00140821475820989
-3.36625,0.00142350515150324
-3.365,0.00141775277705718
-3.36375,0.0013999061513701
-3.3625,0.0013810930339479
-3.36125,0.00137215075454253
-3.36,0.00138117930963484
-3.35875,0.00141173087486001
-3.3575,0.00146205392053966
-3.35625,0.00152547811033548
-3.355,0.00159179374360088
-3.35375,0.00164937184583415
-3.3525,0.00168764320134916
-3.35125,0.00169939251697548
-3.35,0.00168230546853714
-3.34875,0.00163942280752226
-3.3475,0.00157845493657652
-3.34625,0.00151011806445851
-3.345,0.00144579716470002
-3.34375,0.00139502220462149
-3.3425,0.00136337675567362
-3.34125,0.00135135182630296
-3.34,0.00135434265261042
-3.33875,0.00136370308164414
-3.3375,0.00136863426107369
-3.33625,0.0013585759929745
-3.335,0.00132560609348553
-3.33375,0.00126626655334144
-3.3325,0.00118237986874691
-3.33125,0.00108071508773223
-3.33,0.000971607885415951
-3.32875,0.000866790921256148
-3.3275,0.000776858685694771
-3.32625,0.000708961520584265
-3.325,0.000665307225806073
-3.32375,0.000642780727380116
-3.3225,0.000633673472257041
-3.32125,0.000627333120675103
-3.32,0.000612445393886293
-3.31875,0.000579511033172814
-3.3175,0.000522943174579317
-3.31625,0.000442270695721507
-3.315,0.000342201303683757
-3.31375,0.000231579970714386
-3.3125,0.000121455596795932
-3.31125,2.26195928543054e-05
-3.31,-5.68384937514116e-05
-3.30875,-0.000113346133613255
-3.3075,-0.000148613903566808
-3.30625,-0.000169262259330229
-3.305,-0.000185450901526134
-3.30375,-0.000208761711259119
-3.3025,-0.000249716089075993
-3.30125,-0.000315471125642122
-3.3,-0.00040825816164067
-3.29875,-0.000524911719281896
-3.2975,-0.0006575389635254
-3.29625,-0.000795172837900909
-3.295,-0.000926106602088337
-3.29375,-0.00104042359522986
-3.2925,-0.00113210113817143
-3.29125,-0.00120017323825855
-3.29,-0.00124875325235699
-3.28875,-0.00128600222345416
-3.2875,-0.00132226535163795
-3.28625,-0.00136770416292224
-3.285,-0.00142991456171836
-3.28375,-0.00151211211615291
-3.2825,-0.00161232548394054
-3.28125,-0.00172374110537945
-3.28,-0.00183609280700258
-3.27875,-0.00193783601040893
-3.2775,-0.00201868041749672
-3.27625,-0.00207188757442873
-3.275,-0.0020957569290937
-3.27375,-0.00209399088808696
-3.2725,-0.00207494635327934
-3.27125,-0.00204996004126512
-3.27,-0.00203103472868738
-3.26875,-0.00202832631206943
-3.2675,-0.00204801275754152
-3.26625,-0.00209106516831041
-3.265,-0.00215316873593206
-3.26375,-0.00222575613928868
-3.2625,-0.00229793898890407
-3.26125,-0.00235897416346502
-3.26,-0.0024007202162846
-3.25875,-0.00241946862877227
-3.2575,-0.00241672479112144
-3.25625,-0.00239884533732565
-3.255,-0.00237567483929678
-3.25375,-0.00235843599795354
-3.2525,-0.00235725652203036
-3.25125,-0.00237887851112005
-3.25,-0.00242511566831621
-3.24875,-0.00249240782948026
-3.2475,-0.00257252165428055
-3.24625,-0.00265423553167413
-3.245,-0.00272569962033069
-3.24375,-0.00277697958700825
-3.2425,-0.00280216114842554
-3.24125,-0.00280050100718817
-3.24,-0.00277642692822366
-3.23875,-0.00273847373273061
-3.2375,-0.00269737908205672
-3.23625,-0.00266367037181887
-3.235,-0.00264523879046448
-3.23375,-0.00264548724899011
-3.2325,-0.00266249706526312
-3.23125,-0.00268936016278839
-3.23,-0.00271557348191591
-3.22875,-0.00272923650019579
-3.2275,-0.00271962436491995
-3.22625,-0.00267953846122533
-3.225,-0.0026068495191251
-3.22375,-0.00250491298793028
-3.2225,-0.00238185612494836
-3.22125,-0.002248922470124
-3.22,-0.00211816386273551
-3.21875,-0.00199992324314949
-3.2175,-0.00190069149627345
-3.21625,-0.00182186164386111
-3.215,-0.00175963340594688
-3.21375,-0.00170603566037561
-3.2125,-0.00165085333743651
-3.21125,-0.00158409140298633
-3.21,-0.00149842473690604
-3.20875,-0.00139101468496842
-3.2075,-0.00126426738010879
-3.20625,-0.00112544307143578
-3.205,-0.000985261698224479
-3.20375,-0.000855759837889468
-3.2025,-0.000747783733807117
-3.20125,-0.000668668103122343
-3.2,-0.000620671039894604
-3.19875,-0.000600517262943322
-3.1975,-0.000600097902484109
-3.19625,-0.000608163209415599
-3.195,-0.000612699133053253
-3.19375,-0.000603497175735972
-3.1925,-0.00057429287090174
-3.19125,-0.000523953154068422
-3.19,-0.000456509273260397
-3.18875,-0.000380118317598155
-3.1875,-0.000305177049110024
-3.18625,-0.000241921322145177
-3.185,-0.000198008865531583
-3.18375,-0.000176672571743397
-3.1825,-0.000175888963412654
-3.18125,-0.000188708605736616
-3.18,-0.000204645629642029
-3.17875,-0.000211867708019592
-3.1775,-0.000199758695029641
-3.17625,-0.000161254720345062
-3.175,-9.43685856726251e-05
-3.17375,-2.58446490100595e-06
-3.1725,0.000105873797202583
-3.17125,0.000219712717039623
-3.17,0.000326887223394951
-3.16875,0.00041712350115447
-3.1675,0.000484062682409558
-3.16625,0.000526502675509893
-3.165,0.000548488270894053
-3.16375,0.000558285487457291
-3.1625,0.000566454107031246
-3.16125,0.000583382268113119
-3.16,0.000616829190305096
-3.15875,0.000670092470369019
-3.1575,0.000741226728825311
-3.15625,0.000823409313370076
-3.155,0.000906312339018166
-3.15375,0.00097822867862846
-3.1525,0.00102856944664463
-3.15125,0.00105018551424434
-3.15,0.00104094322146416
-3.14875,0.00100419925133523
-3.1475,0.00094812129871289
-3.14625,0.000884012900554701
-3.145,0.000823947830066926
-3.14375,0.000778203309900047
-3.1425,0.000753117836999663
-3.14125,0.000749896009818348
-3.14,0.000764566141498815
-3.13875,0.000789009064812613
-3.1375,0.000812835779967469
-3.13625,0.000825782168081258
-3.135,0.000820123479340052
-3.13375,0.000792520434971438
-3.1325,0.000744851267903991
-3.13125,0.000683882974785653
-3.13,0.000619885142694724
-3.12875,0.000564446260108341
-3.1275,0.000527923310193596
-3.12625,0.000517126704392662
-3.125,0.000533824096791566
-3.12375,0.000574374601874052
-3.1225,0.000630483475641263
-3.12125,0.000690886274266136
-3.12,0.000743673071060403
-3.11875,0.000778812133532483
-3.1175,0.000790290932193663
-3.11625,0.000777351186176043
-3.115,0.000744565896707324
-3.11375,0.000700792936324785
-3.1125,0.000657220057069219
-3.11125,0.000624868423804603
-3.11,0.000612105590468372
-3.10875,0.000622788995473148
-3.1075,0.000655468481233783
-3.10625,0.000703741493882515
-3.105,0.000757616654679736
-3.10375,0.000805630825499085
-3.1025,0.000837336540053644
-3.10125,0.000845613015212811
-3.1,0.000828232218351875
-3.09875,0.000788326344961617
-3.0975,0.000733704966803017
-3.09625,0.000675182559659899
-3.095,0.000624224309221747
-3.09375,0.000590400263220021
-3.0925,0.000579271709655345
-3.09125,0.000591228718822615
-3.09,0.000621481142116564
-3.08875,0.000661118411489887
-3.0875,0.000699014021435075
-3.08625,0.000724243383220959
-3.085,0.000728519336909682
-3.08375,0.000708057685312416
-3.0825,0.000664426219962602
-3.08125,0.000604229622606098
-3.08,0.000537733312481108
-3.07875,0.000476684854765076
-3.0775,0.000431759280472514
-3.07625,0.000410224844857593
-3.075,0.000414412205269316
-3.07375,0.000441304948352763
-3.0725,0.000483249970002864
-3.07125,0.000529602033699895
-3.07,0.000569014559803692
-3.06875,0.000591935759508541
-3.0675,0.0005927279370407
-3.06625,0.000570887502410054
-3.065,0.000531114579049941
-3.06375,0.000482266534950806
-3.0625,0.000435408733206879
-3.06125,0.000401327909188175
-3.06,0.000388057978353111
-3.05875,0.000399038024188241
-3.0575,0.000432329029978718
-3.05625,0.000480982042424982
-3.055,0.000534414890991182
-3.05375,0.000580545057112572
-3.0525,0.000608296280717026
-3.05125,0.000609930352732857
-3.05,0.000582633304016975
-3.04875,0.000529001322200021
-3.0475,0.000456374310181153
-3.04625,0.000375176762477212
-3.045,0.00029657221048081
-3.04375,0.000229920309786401
-3.0425,0.000180660977105684
-3.04125,0.000149146480625291
-3.04,0.000130626461474572
-3.03875,0.000116303516628672
-3.0375,9.52363163659421e-05
-3.03625,5.67591611481049e-05
-3.035,-7.07783838251061e-06
-3.03375,-9.96365675307058e-05
-3.0325,-0.0002188357874068
-3.03125,-0.000357463965816599
-3.03,-0.000504559194403042
-3.02875,-0.000647597843049468
-3.0275,-0.000775063839722627
-3.02625,-0.000878798567290479
-3.025,-0.000955544935376833
-3.02375,-0.00100736687207838
-3.0225,-0.00104094776807468
-3.02125,-0.00106595564350946
-3.02,-0.00109276313592406
-3.01875,-0.0011299625811171
-3.0175,-0.00118225895974367
-3.01625,-0.00124926464133936
-3.015,-0.00132544730811099
-3.01375,-0.00140119473998975
-3.0125,-0.00146477994043202
-3.01125,-0.00150485847594702
-3.01,-0.0015129469546108
-3.00875,-0.00148526306249554
-3.0075,-0.00142350195453199
-3.00625,-0.00133445877733021
-3.005,-0.00122864336747209
-3.00375,-0.00111814180392766
-3.0025,-0.00101410685092818
-3.00125,-0.000924423771859947
-3,-0.000852121644155959
-2.99875,-0.000794886711280401
-2.9975,-0.000745732184583745
-2.99625,-0.000694665138879527
-2.995,-0.000631042329723227
-2.99375,-0.000546123375008267
-2.9925,-0.000435195047049359
-2.99125,-0.000298744650567514
-2.99,-0.000142476884362114
-2.98875,2.37441979728885e-05
-2.9875,0.000187806370876582
-2.98625,0.000337783521495816
-2.985,0.000464396846670351
-2.98375,0.000562911818746016
-2.9825,0.000634017914760564
-2.98125,0.000683537378946244
-2.98,0.000721063747371957
-2.97875,0.0007577900880316
-2.9775,0.00080395624176813
-2.97625,0.000866514361296385
-2.975,0.000947597131677572
-2.97375,0.00104410639122164
-2.9725,0.00114841962350205
-2.97125,0.00125002790342114
-2.97,0.00133781809045775
-2.96875,0.0014025610847937
-2.9675,0.00143902696301128
-2.96625,0.00144720527509132
-2.965,0.00143237779800042
-2.96375,0.0014040762336391
-2.9625,0.00137413653978014
-2.96125,0.00135421242331333
-2.96,0.00135329390049844
-2.95875,0.00137584871113729
-2.9575,0.00142101480993417
-2.95625,0.00148294000791593
-2.955,0.00155212830577683
-2.95375,0.00161754190080519
-2.9525,0.00166907881910623
-2.95125,0.00169988121785631
-2.95,0.00170790578354755
-2.94875,0.00169640089422195
-2.9475,0.00167323660242268
-2.94625,0.00164924550957431
-2.945,0.00163587880167116
-2.94375,0.00164266409099762
-2.9425,0.0016750877964297
-2.94125,0.00173342228794156
-2.94,0.00181270269586219
-2.93875,0.00190377225654517
-2.9375,0.00199517604459792
-2.93625,0.00207557483357816
-2.935,0.00213618454729951
-2.93375,0.0021726529619235
-2.9325,0.00218592525477806
-2.93125,0.00218194900580849
-2.93,0.00217032011206447
-2.92875,0.00216212510690352
-2.9275,0.00216740206472203
-2.92625,0.00219281505621132
-2.925,0.00224012720580321
-2.92375,0.0023057925508606
-2.9225,0.00238166535611168
-2.92125,0.00245664066427026
-2.92,0.00251893911762823
-2.91875,0.00255859806405976
-2.9175,0.0025695903070962
-2.91625,0.00255105077476401
-2.915,0.00250736119725521
-2.91375,0.00244712679528079
-2.9125,0.00238125633082123
-2.91125,0.00232050640564301
-2.91,0.00227303302713664
-2.90875,0.0022425648846191
-2.9075,0.00222762425674401
-2.90625,0.00222189034907925
-2.905,0.00221556339219664
-2.90375,0.00219747764213993
-2.9025,0.00215758331743281
-2.90125,0.00208925264158345
-2.9,0.00199084102370772
-2.89875,0.00186614817038029
-2.8975,0.00172372670836121
-2.89625,0.00157519907662562
-2.895,0.00143288970336349
-2.89375,0.00130726033397642
-2.8925,0.00120477087154867
-2.89125,0.00112668583656529
-2.89,0.00106903213082357
-2.88875,0.00102362732565233
-2.8875,0.000979957853792698
-2.88625,0.000927579084737367
-2.885,0.000858544582853748
-2.88375,0.000769278066436991
-2.8825,0.000661439326139464
-2.88125,0.000541632347678638
-2.88,0.000420055115519558
-2.87875,0.000308346427106113
-2.8775,0.000217052054934401
-2.87625,0.000153303874170367
-2.875,0.000119295598265381
-2.87375,0.000111876008876682
-2.8725,0.00012326000858232
-2.87125,0.000142672115557782
-2.87,0.000158635761019225
-2.86875,0.00016147038147293
-2.8675,0.000145415947900189
-2.86625,0.000109861479044795
-2.865,5.94239661717412e-05
-2.86375,2.91018782051292e-06
-2.8625,-4.86261360908475e-05
-2.86125,-8.43670841511882e-05
-2.86,-9.62041967244386e-05
-2.85875,-8.05837024445119e-05
-2.8575,-3.92960519372274e-05
-2.85625,2.08839875649203e-05
-2.855,8.95641117467049e-05
-2.85375,0.000154856169109729
-2.8525,0.000205872915154283
-2.85125,0.000235055176739993
-2.85,0.000239760364030477
-2.84875,0.000222755867291398
-2.8475,0.000191562169335373
-2.84625,0.000156802653156954
-2.845,0.000129863092529483
-2.84375,0.000120345912390668
-2.8425,0.000133941627771537
-2.84125,0.000171240188836575
-2.84,0.000227690868610478
-2.83875,0.000294630795323423
-2.8375,0.000361159673431937
-2.83625,0.000416529704588058
-2.835,0.000452556128517053
-2.83375,0.000465462300246116
-2.8325,0.000456713312899029
-2.83125,0.000432690793572913
-2.83,0.000403313165545482
-2.82875,0.000379861077579523
-2.8275,0.000372433781942695
-2.82625,0.000387631636212206
-2.825,0.000427046841669278
-2.82375,0.000486878999703196
-2.8225,0.000558671036040303
-2.82125,0.00063097708033884
-2.82,0.000691674686312976
-2.81875,0.000730483339953144
-2.8175,0.000741108819130587
-2.81625,0.000722489908597984
-2.815,0.000678894518456449
-2.81375,0.0006188989612561
-2.8125,0.000553463249985345
-2.81125,0.000493464975713781
-2.81,0.000447236859106323
-2.80875,0.000418724815913139
-2.8075,0.000406693664987085
-2.80625,0.000405075060360324
-2.805,0.000404315771295674
-2.80375,0.000393474897430182
-2.8025,0.000362690835229951
-2.80125,0.000305474127880482
-2.8,0.000220258219496952
-2.79875,0.000110853763567463
-2.7975,-1.42454462915363e-05
-2.79625,-0.000143544680739512
-2.795,-0.000264912879803753
-2.79375,-0.000368142326971366
-2.7925,-0.000447080422026882
-2.79125,-0.000500812891355162
-2.79,-0.000533692891373059
-2.78875,-0.00055429770489137
-2.7875,-0.000573535753624169
-2.78625,-0.000602234680452762
-2.785,-0.000648704820260805
-2.78375,-0.000716864333245824
-2.7825,-0.000805373749200064
-2.78125,-0.000907930860788766
-2.78,-0.0010146256939852
-2.77875,-0.00111409905960481
-2.7775,-0.00119608089509716
-2.77625,-0.00125371360015346
-2.775,-0.00128507677964873
-2.77375,-0.00129359388215143
-2.7725,-0.00128732151012604
-2.77125,-0.00127730658627244
-2.77,-0.00127529692011641
-2.76875,-0.0012912412728058
-2.7675,-0.00133115703497633
-2.76625,-0.0013958880709038
-2.765,-0.00148100714750558
-2.76375,-0.00157783171113503
-2.7625,-0.00167534212351489
-2.76125,-0.00176264074685989
-2.76,-0.00183140662668014
-2.75875,-0.00187772790667707
-2.7575,-0.00190288414761222
-2.75625,-0.00191298478953784
-2.755,-0.00191760781599983
-2.75375,-0.00192769262214868
-2.7525,-0.00195306847026716
-2.75125,-0.00200016381309363
-2.75,-0.0020704653281656
-2.74875,-0.00216008164705468
-2.7475,-0.00226046323808929
-2.74625,-0.00236011470738534
-2.745,-0.00244698623555388
-2.74375,-0.00251104752358141
-2.7425,-0.00254641636821472
-2.74125,-0.00255252514242809
-2.74,-0.00253412891855843
-2.73875,-0.00250024392001376
-2.7375,-0.00246224053476396
-2.73625,-0.00243141983411857
-2.735,-0.00241656581800038
-2.73375,-0.00242205839726633
-2.7325,-0.00244699388210188
-2.73125,-0.0024854632259992
-2.73,-0.00252788855727501
-2.72875,-0.00256316412315574
-2.7275,-0.00258118086633317
-2.72625,-0.00257514157050486
-2.725,-0.00254308273058475
-2.72375,-0.00248828202661862
-2.7225,-0.00241855089015319
-2.72125,-0.00234459733690255
-2.72,-0.0022777455552876
-2.71875,-0.00222744984849704
-2.7175,-0.00219918245674311
-2.71625,-0.00219321793606967
-2.715,-0.00220456694128846
-2.71375,-0.00222402585848455
-2.7125,-0.00224012912244696
-2.71125,-0.00224164044606285
-2.71,-0.00222003636929283
-2.70875,-0.0021713641351535
-2.7075,-0.00209704547436095
-2.70625,-0.0020035303668955
-2.705,-0.00190094228118794
-2.70375,-0.00180096658757055
-2.7025,-0.00171436116353913
-2.70125,-0.00164863300841545
-2.7,-0.00160645035665952
-2.69875,-0.00158514812192783
-2.6975,-0.00157738319677448
-2.69625,-0.00157278333377879
-2.695,-0.00156028603976071
-2.69375,-0.00153068077137961
-2.6925,-0.00147873087100821
-2.69125,-0.00140435303486259
-2.69,-0.00131264731671395
-2.68875,-0.0012128585007318
-2.6875,-0.00111649026391851
-2.68625,-0.00103490043718503
-2.685,-0.000976869222624797
-2.68375,-0.000946725685096032
-2.6825,-0.000943480665122459
-2.68125,-0.000961117935162325
-2.68,-0.000989944782798059
-2.67875,-0.00101874739757525
-2.6775,-0.00103732837062901
-2.67625,-0.00103883120403009
-2.675,-0.00102126701014192
-2.67375,-0.000987922606475909
-2.6725,-0.000946650246279825
-2.67125,-0.000908224299606256
-2.67,-0.000884050586331019
-2.66875,-0.000883664799638535
-2.6675,-0.00091259897298302
-2.66625,-0.000971139316817772
-2.665,-0.00105423014719854
-2.66375,-0.00115249305327085
-2.6625,-0.00125415182671698
-2.66125,-0.00134750468979452
-2.66,-0.00142340240615591
-2.65875,-0.00147711509991469
-2.6575,-0.00150915494101102
-2.65625,-0.00152495331105019
-2.655,-0.00153353095800447
-2.65375,-0.00154541229231357
-2.6525,-0.001570163456677
-2.65125,-0.00161409823121669
-2.65,-0.00167871984520908
-2.64875,-0.0017602533498659
-2.6475,-0.00185032123693037
-2.64625,-0.00193760373854921
-2.645,-0.00201018163302082
-2.64375,-0.00205807910898186
-2.6425,-0.00207538674428449
-2.64125,-0.00206144343778004
-2.64,-0.00202086995532543
-2.63875,-0.0019625342183412
-2.6375,-0.00189766812076383
-2.63625,-0.00183746193071471
-2.635,-0.00179062724873796
-2.63375,-0.00176151519385991
-2.6325,-0.00174923964265809
-2.63125,-0.00174795719536113
-2.63,-0.00174820387485739
-2.62875,-0.00173903451663558
-2.6275,-0.00171054561640056
-2.62625,-0.00165619063977736
-2.625,-0.00157430439106693
-2.62375,-0.0014685135804382
-2.6225,-0.00134703051533615
-2.62125,-0.00122101298236429
-2.62,-0.00110227524196409
-2.61875,-0.00100078671267812
-2.6175,-0.000922538439176155
-2.61625,-0.000868302820625568
-2.615,-0.000833542974482991
-2.61375,-0.000809440532337669
-2.6125,-0.00078483036314214
-2.61125,-0.000748680939314376
-2.61,-0.000692576040669347
-2.60875,-0.000612579107114212
-2.6075,-0.000510047985261467
-2.60625,-0.000391300268118805
-2.605,-0.000266269295856416
-2.60375,-0.000146403039351505
-2.6025,-4.21856130397841e-05
-2.60125,3.91746315331502e-05
-2.6,9.53212478056988e-05
-2.59875,0.000129233068503004
-2.5975,0.000148560041555328
-2.59625,0.000163969690079013
-2.595,0.000186807482215416
-2.59375,0.000226554736759607
-2.5925,0.000288704926503517
-2.59125,0.000373581464362045
-2.59,0.000476307231834276
-2.58875,0.000587847085325602
-2.5875,0.000696901524658407
-2.58625,0.000792321792059753
-2.585,0.000865553052836026
-2.58375,0.000912518384870507
-2.5825,0.000934493413131614
-2.58125,0.000937819284505903
-2.58,0.000932554173387263
-2.57875,0.00093031870766207
-2.5775,0.000941755780663226
-2.57625,0.000974196631616503
-2.575,0.00103011810485331
-2.57375,0.00110671560917925
-2.5725,0.00119659540351985
-2.57125,0.00128940291630604
-2.57,0.00137410221939661
-2.56875,0.00144147040458542
-2.5675,0.00148622706863564
-2.56625,0.0015082736377942
-2.565,0.00151278564589477
-2.56375,0.00150918755288309
-2.5625,0.00150921993167052
-2.56125,0.00152445945655961
-2.56,0.00156383550393242
-2.55875,0.00163176160705689
-2.5575,0.00172731386695846
-2.55625,0.00184455618973373
-2.555,0.00197387242218441
-2.55375,0.00210405322151896
-2.5525,0.00222475797290855
-2.55125,0.00232880890658855
-2.55,0.0024137512561165
-2.54875,0.00248232652781531
-2.5475,0.00254180716229251
-2.54625,0.00260235134497793
-2.545,0.00267467994279653
-2.54375,0.00276755780697935
-2.5425,0.00288569931099932
-2.54125,0.00302861860867676
-2.54,0.00319062906165373
-2.53875,0.0033619065082295
-2.5375,0.0035303917683026
-2.53625,0.00368420442133192
-2.535,0.00381407779738353
-2.53375,0.00391523063545491
-2.5325,0.0039882274789397
-2.53125,0.00403867755141594
-2.53,0.0040758741543838
-2.52875,0.00411063193867694
-2.5275,0.004152744815732
-2.52625,0.00420865822232249
-2.525,0.00427994096307425
-2.52375,0.00436287953814619
-2.5225,0.00444919494719988
-2.52125,0.00452769404279151
-2.52,0.00458656705687522
-2.51875,0.00461589363097116
-2.5175,0.00460977764807268
-2.51625,0.00456758702810203
-2.515,0.00449404467859508
-2.51375,0.00439820394678354
-2.5125,0.00429152020604949
-2.51125,0.00418537734088742
-2.51,0.00408860986265575
-2.50875,0.00400563743207043
-2.5075,0.00393564435265191
-2.50625,0.00387290510002308
-2.505,0.0038081175672872
-2.50375,0.00373049388606819
-2.5025,0.00363023078320316
-2.50125,0.00350081646476991
-2.5,0.00334060479447555
-2.49875,0.00315329841301722
-2.4975,0.00294728386560621
-2.49625,0.00273397513092103
-2.495,0.00252546842773748
-2.49375,0.00233199296605473
-2.4925,0.00215978005165287
-2.49125,0.00200987457875345
-2.49,0.00187809913565763
-2.48875,0.00175609118997977
-2.4875,0.00163319100117797
-2.48625,0.00149885119050889
-2.485,0.00134507585301731
-2.48375,0.00116830216065509
-2.4825,0.000970273114166952
-2.48125,0.000757747524070837
-2.48,0.000541146323138795
-2.47875,0.000332390683093028
-2.4775,0.000142354059726957
-2.47625,-2.14774280910617e-05
-2.475,-0.00015654957620923
-2.47375,-0.000265664746484183
-2.4725,-0.00035628364018495
-2.47125,-0.000438888638781009
-2.47,-0.000524694664518849
-2.46875,-0.000623144488800237
-2.4675,-0.000739768881709653
-2.46625,-0.000874937556130574
-2.465,-0.00102375776872824
-2.46375,-0.00117708986487373
-2.4625,-0.00132346922808923
-2.46125,-0.00145157550069674
-2.46,-0.00155270754531833
-2.45875,-0.00162264678119619
-2.4575,-0.00166247579069512
-2.45625,-0.00167825088122221
-2.455,-0.00167966752349487
-2.45375,-0.00167796978500123
-2.4525,-0.00168348196486863
-2.45125,-0.00170330471879435
-2.45,-0.00173974458257856
-2.44875,-0.00178983580420199
-2.4475,-0.00184601166929387
-2.44625,-0.00189776784910694
-2.445,-0.00193401257839163
-2.44375,-0.00194561617049036
-2.4425,-0.0019275357319133
-2.44125,-0.001879992097558
-2.44,-0.0018084918224878
-2.43875,-0.00172277582126819
-2.4375,-0.0016349168065624
-2.43625,-0.00155689375077287
-2.435,-0.00149813489130693
-2.43375,-0.00146361529143754
-2.4325,-0.00145295939506582
-2.43125,-0.00146070310119472
-2.43,-0.00147761799506858
-2.42875,-0.00149284428036025
-2.4275,-0.00149641308019057
-2.42625,-0.00148156720659581
-2.425,-0.00144629601192429
-2.42375,-0.00139375931881142
-2.4225,-0.00133159596064167
-2.42125,-0.00127029998571244
-2.42,-0.0012209492952368
-2.41875,-0.00119272219577066
-2.4175,-0.00119078102500262
-2.41625,-0.00121504857744605
-2.415,-0.00126013488953196
-2.41375,-0.00131638417233752
-2.4125,-0.00137182989921474
-2.41125,-0.00141469470366642
-2.41,-0.00143588849148667
-2.40875,-0.00143088481852261
-2.4075,-0.00140054343800622
-2.40625,-0.00135078022623455
-2.405,-0.00129122513202689
-2.40375,-0.00123311979266916
-2.4025,-0.00118683345845036
-2.40125,-0.00115954097609619
-2.4,-0.00115363366940661
-2.39875,-0.00116622283273055
-2.3975,-0.00118979246575593
-2.39625,-0.00121384313552253
-2.395,-0.00122722247736295
-2.39375,-0.00122065753154817
-2.3925,-0.00118886817821609
-2.39125,-0.00113174025353957
-2.39,-0.00105435002804677
-2.38875,-0.000965919514579712
-2.3875,-0.00087792333280305
-2.38625,-0.000801674462244041
-2.385,-0.000745879958200527
-2.38375,-0.00071475342917795
-2.3825,-0.000707136166366783
-2.38125,-0.000716781805955287
-2.38,-0.000733706089095983
-2.37875,-0.000746346549330232
-2.3775,-0.0007441104266265
-2.37625,-0.000719717192304719
-2.375,-0.000670750057442644
-2.37375,-0.000600092402445119
-2.3725,-0.000515245863659301
-2.37125,-0.000426713078098139
-2.37,-0.000345729340370012
-2.36875,-0.000281778705699044
-2.3675,-0.000240473922607647
-2.36625,-0.00022232536455462
-2.365,-0.000222654946606426
-2.36375,-0.000232623267778447
-2.3625,-0.000241158304894862
-2.36125,-0.000237425066117293
-2.36,-0.000213292896097131
-2.35875,-0.000165182329607304
-2.3575,-9.48601331834126e-05
-2.35625,-9.08449834401206e-06
-2.355,8.17581004563336e-05
-2.35375,0.000165772064790803
-2.3525,0.000232048948811741
-2.35125,0.000272997491860669
-2.35,0.000285937275267575
-2.34875,0.000273596586994602
-2.3475,0.000243457592238117
-2.34625,0.000206106312495947
-2.345,0.000172891108433526
-2.34375,0.000153374211551602
-2.3425,0.000153198434657976
-2.34125,0.00017289328546934
-2.34,0.000207831276655282
-2.33875,0.000249256155687636
-2.3375,0.000286162718960198
-2.33625,0.000307700636007795
-2.335,0.000305610181395102
-2.33375,0.00027610206497198
-2.3325,0.000220729439332054
-2.33125,0.000146097761565153
-2.33,6.25109027798479e-05
-2.32875,-1.81921190354248e-05
-2.3275,-8.51884296006661e-05
-2.32625,-0.000131015936869192
-2.325,-0.000153123616880038
-2.32375,-0.000154301568650969
-2.3225,-0.000141987047721558
-2.32125,-0.000126630399980763
-2.32,-0.000119406878672175
-2.31875,-0.00012971137907629
-2.3175,-0.000163016347690347
-2.31625,-0.000219619315165212
-2.315,-0.000294538759394165
-2.31375,-0.000378529901352139
-2.3125,-0.000460011087400265
-2.31125,-0.000527541057070719
-2.31,-0.000572303873030452
-2.30875,-0.000589982203236596
-2.3075,-0.000581583813222581
-2.30625,-0.000553117900852048
-2.305,-0.000514258921020066
-2.30375,-0.000476248842575018
-2.3025,-0.000449416485450807
-2.30125,-0.000440857286381302
-2.3,-0.000452844079229741
-2.29875,-0.00048232961722812
-2.2975,-0.000521599739995739
-2.29625,-0.000559921332420258
-2.295,-0.000585882036330289
-2.29375,-0.000589937466411541
-2.2925,-0.000566544212555692
-2.29125,-0.00051535453308992
-2.29,-0.000441261393031575
-2.28875,-0.000353370971296988
-2.2875,-0.000263121620471901
-2.28625,-0.00018187562474406
-2.285,-0.000118475236320317
-2.28375,-7.73515868593865e-05
-2.2825,-5.76402011726253e-05
-2.28125,-5.34583585810715e-05
-2.28,-5.5245240239819e-05
-2.27875,-5.19100698572114e-05
-2.2775,-3.33684915754154e-05
-2.27625,7.12482401034121e-06
-2.275,7.14334491927533e-05
-2.27375,0.000156112001845896
-2.2725,0.000253098382329785
-2.27125,0.00035134211304759
-2.27,0.000439084733432456
-2.26875,0.000506357611596014
-2.2675,0.000547118169728666
-2.26625,0.000560498654932775
-2.265,0.000550909922412012
-2.26375,0.000527029827968744
-2.2625,0.000499885519066144
-2.26125,0.000480388481003187
-2.26,0.000476865434172664
-2.25875,0.000493204416434969
-2.2575,0.000528048891571444
-2.25625,0.000575138379113366
-2.255,0.000624653454567885
-2.25375,0.000665312586289229
-2.2525,0.000686843637089836
-2.25125,0.000682289551348974
-2.25,0.000649579991855021
-2.24875,0.000592010270098601
-2.2475,0.000517571814584828
-2.24625,0.000437293221583603
-2.245,0.000362896096076289
-2.24375,0.000304249240681272
-2.2425,0.000267241479463092
-2.24125,0.000252595125479246
-2.24,0.00025582862079108
-2.23875,0.000268288479124288
-2.2375,0.000279030152844545
-2.23625,0.000277221998818378
-2.235,0.00025458258808662
-2.23375,0.000207264745010453
-2.2325,0.000136734119067261
-2.23125,4.94870957920385e-05
-2.23,-4.42944685621157e-05
-2.22875,-0.000132898580062614
-2.2275,-0.000205629577594303
-2.22625,-0.000255153929326803
-2.225,-0.00027905849286373
-2.22375,-0.00028029361791777
-2.2225,-0.0002664950495784
-2.22125,-0.000248366512532708
-2.22,-0.000237405617700189
-2.21875,-0.000243405487389383
-2.2175,-0.00027230921162491
-2.21625,-0.000324943930765477
-2.215,-0.000396896137115966
-2.21375,-0.000479503479959915
-2.2125,-0.000561757496202113
-2.21125,-0.000632761030965782
-2.21,-0.000684199180753819
-2.20875,-0.000712204148572198
-2.2075,-0.000718177016265418
-2.20625,-0.000708461341462722
-2.205,-0.000693005352907748
-2.20375,-0.000683263192115895
-2.2025,-0.000689712783858921
-2.20125,-0.000719532449514833
-2.2,-0.000775007201285159
-2.19875,-0.000853027066545227
-2.1975,-0.000945737088273955
-2.19625,-0.00104218285370269
-2.195,-0.00113064853192831
-2.19375,-0.00120120374325072
-2.1925,-0.00124783794513825
-2.19125,-0.00126965807060268
-2.19,-0.00127093788466245
-2.18875,-0.00126009676382244
-2.1875,-0.00124782774659794
-2.18625,-0.00124470082614196
-2.185,-0.0012587306247496
-2.18375,-0.00129349400314336
-2.1825,-0.00134725020107056
-2.18125,-0.00141322087806716
-2.18,-0.00148093468511263
-2.17875,-0.00153838435403479
-2.1775,-0.00157457792351689
-2.17625,-0.00158189220894886
-2.175,-0.0015576404599627
-2.17375,-0.00150452499030386
-2.1725,-0.0014299680134282
-2.17125,-0.00134450270496864
-2.17,-0.0012595074990372
-2.16875,-0.00118471668118071
-2.1675,-0.00112608503752367
-2.16625,-0.00108453286569857
-2.165,-0.00105583107466126
-2.16375,-0.0010315992923931
-2.1625,-0.00100120957519628
-2.16125,-0.00095423883132465
-2.16,-0.00088292916186931
-2.15875,-0.000784037348814182
-2.1575,-0.000659637654060168
-2.15625,-0.000516774321695717
-2.155,-0.000366102138882029
-2.15375,-0.000219767350878234
-2.1525,-8.89089552221646e-05
-2.15125,1.86754185271454e-05
-2.15,0.000100127547425157
-2.14875,0.000158028472506221
-2.1475,0.000199740461980817
-2.14625,0.000235747472941761
-2.145,0.000277298794150919
-2.14375,0.000333842541682201
-2.1425,0.000410873526046218
-2.14125,0.000508722124988742
-2.14,0.000622497145539751
-2.13875,0.000743105809462757
-2.1375,0.000859131393600855
-2.13625,0.000959242225726508
-2.135,0.00103464049597979
-2.13375,0.00108096045000131
-2.1325,0.0010991590996926
-2.13125,0.00109524176153792
-2.13,0.00107892092719867
-2.12875,0.00106146427257964
-2.1275,0.00105315271428199
-2.12625,0.00106094125903249
-2.125,0.00108691018754006
-2.12375,0.00112783461192954
-2.1225,0.00117587804242692
-2.12125,0.00122022668823848
-2.12,0.00124937962329124
-2.11875,0.00125365959571522
-2.1175,0.00122736458183784
-2.11625,0.00117003173600744
-2.115,0.00108655301933021
-2.11375,0.000986170213143235
-2.1125,0.000880557456912837
-2.11125,0.000781347696015272
-2.11,0.000697643466198037
-2.10875,0.000634132393285097
-2.1075,0.000590245814405087
-2.10625,0.000560465689357593
-2.105,0.000535642895959452
-2.10375,0.000505078283188048
-2.1025,0.000458991572996185
-2.10125,0.000390836507627669
-2.1,0.000298889106689017
-2.09875,0.000186744257512488
-2.0975,6.26601773257881e-05
-2.09625,-6.20933355537123e-05
-2.095,-0.000175580675186195
-2.09375,-0.000267756783572762
-2.0925,-0.000332611130780695
-2.09125,-0.000369372408593667
-2.09,-0.000382560343196558
-2.08875,-0.000380961575081772
-2.0875,-0.000375749604600115
-2.08625,-0.000378075039119034
-2.085,-0.000396615905368962
-2.08375,-0.000435675366088094
-2.0825,-0.00049428167803758
-2.08125,-0.000566448553777553
-2.08,-0.000642499278208729
-2.07875,-0.000711200897537255
-2.0775,-0.000762290202747975
-2.07625,-0.000788801502320204
-2.075,-0.000788609900062869
-2.07375,-0.000764861654127431
-2.0725,-0.000725285785959574
-2.07125,-0.000680570764665859
-2.07,-0.000642090759087192
-2.06875,-0.000619414496718587
-2.0675,-0.000618173993832729
-2.06625,-0.000638820167955205
-2.065,-0.000676526326520881
-2.06375,-0.000722212283004852
-2.0625,-0.000764479448086385
-2.06125,-0.000792096471539377
-2.06,-0.000796490834760818
-2.05875,-0.000773624738038528
-2.0575,-0.000724818978831508
-2.05625,-0.000656423470549813
-2.055,-0.000578474940130116
-2.05375,-0.000502592454550276
-2.0525,-0.000439485954306855
-2.05125,-0.000396618959333448
-2.05,-0.000376598408155524
-2.04875,-0.000376657225130316
-2.0475,-0.000389292061942635
-2.04625,-0.000403902345452827
-2.045,-0.00040912961631334
-2.04375,-0.000395414178541928
-2.0425,-0.000357145708131672
-2.04125,-0.000293879268748048
-2.04,-0.000210400897104248
-2.03875,-0.000115717663823416
-2.0375,-2.11902918540306e-05
-2.03625,6.186713809407e-05
-2.035,0.000124631169050149
-2.03375,0.000162668184934026
-2.0325,0.000176832137814053
-2.03125,0.000173000831829425
-2.03,0.00016074555785821
-2.02875,0.000151185840662489
-2.0275,0.000154447101430191
-2.02625,0.000177313643274778
-2.025,0.000221667247358506
-2.02375,0.000284043017057616
-2.0225,0.000356310482962288
-2.02125,0.000427298085353918
-2.02,0.000485077761826171
-2.01875,0.000519476296282997
-2.0175,0.000524234567419822
-2.01625,0.000498285503599757
-2.015,0.000445887452872522
-2.01375,0.000375638113310949
-2.0125,0.00029857667787603
-2.01125,0.000225731841002011
-2.01,0.000165656385534959
-2.00875,0.000122567005876477
-2.0075,9.55261775387113e-05
-2.00625,7.87709587082785e-05
-2.005,6.30510888610048e-05
-2.00375,3.7725622695713e-05
-2.0025,-6.75884250109406e-06
-2.00125,-7.65508453361282e-05
-2,-0.000172811414809897
-1.99875,-0.00029123220218565
-1.9975,-0.000422715746197568
-1.99625,-0.000555060180335509
-1.995,-0.000675342300178316
-1.99375,-0.000772512385239967
-1.9925,-0.00083957585161034
-1.99125,-0.000874833084765693
-1.99,-0.00088196320618203
-1.98875,-0.000869029461740957
-1.9875,-0.00084662659614105
-1.98625,-0.000825495313737078
-1.985,-0.000814091578893968
-1.98375,-0.000816696475125557
-1.9825,-0.000832520782316888
-1.98125,-0.000855962297305385
-1.98,-0.000877919572451617
-1.97875,-0.000887909336233697
-1.9775,-0.00087657017610013
-1.97625,-0.000837962858629912
-1.975,-0.000771082190643201
-1.97375,-0.000680254643013538
-1.9725,-0.000574417954346387
-1.97125,-0.000465466096569013
-1.97,-0.000365942451178638
-1.96875,-0.000286514196823786
-1.9675,-0.0002338077127523
-1.96625,-0.000209135313912466
-1.965,-0.000208376007963341
-1.96375,-0.000222983048866916
-1.9625,-0.000241909068268616
-1.96125,-0.000254090488959806
-1.96,-0.000250949018485724
-1.95875,-0.000228288612127596
-1.9575,-0.000187148579597121
-1.95625,-0.000133507068383095
-1.955,-7.69714007416437e-05
-1.95375,-2.87029211974157e-05
-1.9525,1.05039795778812e-06
-1.95125,5.27393876084571e-06
-1.95,-1.82122977994208e-05
-1.94875,-6.62354896950158e-05
-1.9475,-0.000130898122214511
-1.94625,-0.000201202819387569
-1.945,-0.000265379321444925
-1.94375,-0.00031343555615254
-1.9425,-0.000339310055511867
-1.94125,-0.00034209439432837
-1.94,-0.000326106845514471
-1.93875,-0.000299890978078532
-1.9375,-0.000274357323481205
-1.93625,-0.000260391829422489
-1.935,-0.000266417540859622
-1.93375,-0.000296495022279055
-1.9325,-0.000349417779940674
-1.93125,-0.000418964555417365
-1.93,-0.000495216161616454
-1.92875,-0.000566687230751566
-1.9275,-0.000622857261273846
-1.92625,-0.00065651103832071
-1.925,-0.000665299793769795
-1.92375,-0.000652191093283412
-1.9225,-0.00062479758428277
-1.92125,-0.000593764423966342
-1.92,-0.000570496695565089
-1.91875,-0.000564658125550547
-1.9175,-0.00058201873382417
-1.91625,-0.000623181766126846
-1.915,-0.000683456336252897
-1.91375,-0.000753853273390077
-1.9125,-0.000822997702453491
-1.91125,-0.000879601223756575
-1.91,-0.000914952334789901
-1.90875,-0.000924803607415612
-1.9075,-0.000910215057652061
-1.90625,-0.000877246455312179
-1.905,-0.000835635385876335
-1.90375,-0.000796710957743946
-1.9025,-0.000770918151613005
-1.90125,-0.00076549245636473
-1.9,-0.000782855763058799
-1.89875,-0.000820098402649036
-1.8975,-0.000869610579803374
-1.89625,-0.000920710777800528
-1.895,-0.000961971957322133
-1.89375,-0.000983764960788796
-1.8925,-0.000980397439326429
-1.89125,-0.000951319262369947
-1.89,-0.000901177439251421
-1.88875,-0.000838796386308679
-1.8875,-0.000775304051124998
-1.88625,-0.000721729326430979
-1.885,-0.000686558636741971
-1.88375,-0.000673838626918789
-1.8825,-0.000682280848605185
-1.88125,-0.000705527379823487
-1.88,-0.000733481609956822
-1.87875,-0.000754452846349896
-1.8775,-0.000757698980830733
-1.87625,-0.000735777031676322
-1.875,-0.000686112236220367
-1.87375,-0.00061145390926009
-1.8725,-0.000519209742429406
-1.87125,-0.000419840179735376
-1.87,-0.000324595548434093
-1.86875,-0.00024302834007964
-1.8675,-0.000180859064331151
-1.86625,-0.000138725327051054
-1.865,-0.000112077496854335
-1.86375,-9.21946184510777e-05
-1.8625,-6.81114020980888e-05
-1.86125,-2.90968810442884e-05
-1.86,3.28592627235712e-05
-1.85875,0.000121174885925698
-1.8575,0.000233855315679131
-1.85625,0.000363827218706487
-1.855,0.000500286618578462
-1.85375,0.00063081105551167
-1.8525,0.000743861956984498
-1.85125,0.00083113804929123
-1.85,0.000889207750486123
-1.84875,0.000920053390577734
-1.8475,0.000930461974985759
-1.84625,0.000930413823250665
-1.845,0.000930767614051567
-1.84375,0.000940722054081413
-1.8425,0.00096567630511262
-1.84125,0.00100601971320374
-1.84,0.00105707012174546
-1.83875,0.00111008709283132
-1.8375,0.00115413969624979
-1.83625,0.00117850137785043
-1.835,0.001175082450617
-1.83375,0.00114031402226664
-1.8325,0.00107602885519739
-1.83125,0.000989180517993011
-1.83,0.000890496596898854
-1.82875,0.00079231814080748
-1.8275,0.000706042530327761
-1.82625,0.000639761355745608
-1.825,0.000596683452758397
-1.82375,0.000574674501422401
-1.8225,0.000566919940031553
-1.82125,0.000563528075631099
-1.82,0.00055379100052899
-1.81875,0.000528673228042663
-1.8175,0.000482951970292562
-1.81625,0.000416479488121456
-1.815,0.000334302054374282
-1.81375,0.00024565952027481
-1.8125,0.00016207261139169
-1.81125,9.48741991655824e-05
-1.81,5.27245941753193e-05
-1.80875,3.97320490774545e-05
-1.8075,5.46195094199486e-05
-1.80625,9.10446804796251e-05
-1.805,0.000138935432657311
-1.80375,0.000186589538777096
-1.8025,0.000223163237896443
-1.80125,0.00024100843546592
-1.8,0.000237286103810052
-1.79875,0.000214488926858092
-1.7975,0.000179809006006517
-1.79625,0.000143504449344954
-1.795,0.000116566943885369
-1.79375,0.000108173747784903
-1.7925,0.000123547200020627
-1.79125,0.00016274996495358
-1.79,0.000220630951123889
-1.78875,0.000287845212537302
-1.7875,0.000352728583933658
-1.78625,0.000403703959013937
-1.785,0.000431733227526345
-1.78375,0.000432227797683102
-1.7825,0.000405958656454958
-1.78125,0.000358802378594408
-1.78,0.00030041595281588
-1.77875,0.000242091970108588
-1.7775,0.00019421147844199
-1.77625,0.000163886052534663
-1.775,0.000153380459182007
-1.77375,0.000159651081678958
-1.7725,0.000175011611699042
-1.77125,0.000188746162521646
-1.77,0.000189388390579544
-1.76875,0.000167235765888796
-1.7675,0.000116520936318545
-1.76625,3.6707341866029e-05
-1.765,-6.73612781361395e-05
-1.76375,-0.000186439070158436
-1.7625,-0.000308780526491083
-1.76125,-0.000422611147733258
-1.76,-0.000518624173614792
-1.75875,-0.000591880389600026
-1.7575,-0.000642669159921692
-1.75625,-0.000676222597101406
-1.755,-0.000701418804326562
-1.75375,-0.000728722520470097
-1.7525,-0.000767736140394028
-1.75125,-0.000824899690690988
-1.75,-0.000901911491257213
-1.74875,-0.000995235603810474
-1.7475,-0.0010967593078376
-1.74625,-0.00119544676966015
-1.745,-0.00127968619483417
-1.74375,-0.00133984341590306
-1.7425,-0.00137039482244934
-1.74125,-0.00137111268041625
-1.74,-0.00134709449837263
-1.73875,-0.00130771924404192
-1.7375,-0.0012647522568973
-1.73625,-0.00122992310024618
-1.735,-0.0012124630799352
-1.73375,-0.00121718848445506
-1.7325,-0.00124358621373263
-1.73125,-0.00128606363787841
-1.73,-0.00133526910344221
-1.72875,-0.00138023059177844
-1.7275,-0.00141089332599445
-1.72625,-0.00142046328803992
-1.725,-0.00140696641967181
-1.72375,-0.00137369238569076
-1.7225,-0.00132851625488157
-1.72125,-0.00128228156417865
-1.72,-0.0012465275224869
-1.71875,-0.00123099012455156
-1.7175,-0.00124145266604281
-1.71625,-0.00127847542186085
-1.715,-0.00133727084753448
-1.71375,-0.00140870105657368
-1.7125,-0.00148119095794557
-1.71125,-0.00154320180703408
-1.71,-0.00158572677273401
-1.70875,-0.00160418867469874
-1.7075,-0.00159929869011207
-1.70625,-0.00157676689179194
-1.705,-0.00154599900875742
-1.70375,-0.00151802602172096
-1.7025,-0.0015030380024611
-1.70125,-0.00150806017141349
-1.7,-0.00153534421994423
-1.69875,-0.00158184440431245
-1.6975,-0.00163984532452422
-1.69625,-0.00169858982906947
-1.695,-0.00174660729124498
-1.69375,-0.001774261000619
-1.6925,-0.00177589182835786
-1.69125,-0.00175102763642858
-1.69,-0.00170444075321054
-1.68875,-0.00164512910743179
-1.6875,-0.00158444016415494
-1.68625,-0.00153366020493659
-1.685,-0.00150155441575235
-1.68375,-0.00149244571300279
-1.6825,-0.00150529334572332
-1.68125,-0.00153393678892791
-1.68,-0.00156841375711885
-1.67875,-0.00159710257644873
-1.6775,-0.00160927275963937
-1.67625,-0.00159745154908277
-1.675,-0.00155901276138846
-1.67375,-0.00149665078924986
-1.6725,-0.00141772800536468
-1.67125,-0.00133267633850973
-1.67,-0.00125273477258734
-1.66875,-0.00118745249893904
-1.6675,-0.00114253437126793
-1.66625,-0.00111856109561953
-1.665,-0.0011108541376809
-1.66375,-0.0011104653195242
-1.6625,-0.00110608611180642
-1.66125,-0.00108652116187713
-1.66,-0.00104318585452603
-1.65875,-0.000972004903411048
-1.6575,-0.000874267306971712
-1.65625,-0.00075632667311266
-1.655,-0.000628282256397095
-1.65375,-0.000501890215656541
-1.6525,-0.000388079119126023
-1.65125,-0.000294608907780549
-1.65,-0.000224447104652574
-1.64875,-0.00017523275117202
-1.6475,-0.000139895564419539
-1.64625,-0.000108278635842819
-1.645,-6.94649022181758e-05
-1.64375,-1.43266309342275e-05
-1.6425,6.23248562137467e-05
-1.64125,0.000160521383984477
-1.64,0.00027507281219496
-1.63875,0.000396581559133529
-1.6375,0.000513317930313385
-1.63625,0.000613632191240486
-1.635,0.000688416393526402
-1.63375,0.000733027598146448
-1.6325,0.000748211649720969
-1.63125,0.000739862154516886
-1.63,0.000717706051185078
-1.62875,0.000693165720130848
-1.6275,0.000676813217410185
-1.62625,0.000676007141641071
-1.625,0.000693304030386121
-1.62375,0.000725981444859475
-1.6225,0.00076668661475478
-1.62125,0.000805032656939403
-1.62,0.00082986247522067
-1.61875,0.000831750587611171
-1.6175,0.000805164487142337
-1.61625,0.000749751231805007
-1.615,0.000670478797017498
-1.61375,0.000576652805948872
-1.6125,0.000480013622163668
-1.61125,0.000392267865776254
-1.61,0.000322593208095253
-1.60875,0.000275739588529255
-1.6075,0.000251172204059218
-1.60625,0.00024336714864881
-1.605,0.000243123766825651
-1.60375,0.000239643955575851
-1.6025,0.000223004396476001
-1.60125,0.000186482080260307
-1.6,0.000128158726087552
-1.59875,5.14341905630944e-05
-1.5975,-3.56168496748205e-05
-1.59625,-0.000121891541485351
-1.595,-0.000195607455720849
-1.59375,-0.00024687049459204
-1.5925,-0.000269837927875989
-1.59125,-0.000263944265825343
-1.59,-0.000233969861148293
-1.58875,-0.00018902576642882
-1.5875,-0.00014067340335661
-1.58625,-0.000100502158353493
-1.585,-7.76514650737461e-05
-1.58375,-7.68672470604308e-05
-1.5825,-9.75566317717335e-05
-1.58125,-0.000134008905795726
-1.58,-0.000176692309000781
-1.57875,-0.000214377030438692
-1.5775,-0.000236669966394184
-1.57625,-0.00023637200204892
-1.575,-0.000211065325897535
-1.57375,-0.000163591560114459
-1.5725,-0.000101405704998632
-1.57125,-3.4984400370585e-05
-1.57,2.44308715308758e-05
-1.56875,6.73262137232947e-05
-1.5675,8.80664400050978e-05
-1.56625,8.61722337333497e-05
-1.565,6.6453495713614e-05
-1.56375,3.80191795879722e-05
-1.5625,1.23685353364375e-05
-1.56125,9.18008836580451e-07
-1.56,1.25017329969079e-05
-1.55875,5.14671229947072e-05
-1.5575,0.000116810887816722
-1.55625,0.000202468203746012
-1.555,0.000298620971275542
-1.55375,0.000393776591551352
-1.5525,0.000477244658643051
-1.55125,0.000541473467600214
-1.55,0.000583672157794686
-1.54875,0.000606346834704453
-1.5475,0.000616682494646189
-1.54625,0.000624922247190712
-1.545,0.000642043520700266
-1.54375,0.000677211709300845
-1.5425,0.000735633284099564
-1.54125,0.000817340043174423
-1.54,0.000917126074490896
-1.53875,0.00102556585380779
-1.5375,0.00113089487485237
-1.53625,0.00122142749033873
-1.535,0.00128802397768424
-1.53375,0.00132601814007411
-1.5325,0.00133614365130191
-1.53125,0.00132429263706532
-1.53,0.00130019825875956
-1.52875,0.00127529307991543
-1.5275,0.00126016065919001
-1.52625,0.00126217212316801
-1.525,0.00128389992854633
-1.52375,0.00132264471712149
-1.5225,0.00137108647087551
-1.52125,0.00141887934101886
-1.52,0.00145490923597032
-1.51875,0.00146978556804966
-1.5175,0.00145799121844169
-1.51625,0.0014191584979193
-1.515,0.00135820123257014
-1.51375,0.00128432293864958
-1.5125,0.00120910544657818
-1.51125,0.00114403223299466
-1.51,0.00109798569702061
-1.50875,0.00107534176809836
-1.5075,0.00107510809457057
-1.50625,0.00109121823994478
-1.505,0.00111384750854957
-1.50375,0.00113150243203001
-1.5025,0.00113351208680482
-1.50125,0.00111238282063345
-1.5,0.00106544023306522
-1.49875,0.000995383603581084
-1.4975,0.000909681224676689
-1.49625,0.000818955108855059
-1.495,0.000734652392311642
-1.49375,0.000666483552214349
-1.4925,0.000620252658970094
-1.49125,0.000596616331614965
-1.49,0.000590995546580463
-1.48875,0.000594568172588941
-1.4875,0.000596123785871
-1.48625,0.000584458546398741
-1.485,0.000550826055099095
-1.48375,0.000490857672695656
-1.4825,0.000405490790375258
-1.48125,0.000300737501832476
-1.48,0.000186382999624662
-1.47875,7.38616360969926e-05
-1.4775,-2.62762659153432e-05
-1.47625,-0.000106717905408278
-1.475,-0.000164969010630457
-1.47375,-0.000203823531054136
-1.4725,-0.000230708477951601
-1.47125,-0.000256083845933545
-1.47,-0.000291178198801069
-1.46875,-0.000345487675979029
-1.4675,-0.000424613642453148
-1.46625,-0.000528971809779633
-1.465,-0.000653644787287442
-1.46375,-0.00078936031836901
-1.4625,-0.000924392236470494
-1.46125,-0.00104703092970765
-1.46,-0.0011480849371022
-1.45875,-0.00122279032020904
-1.4575,-0.00127168091989446
-1.45625,-0.00130030670899397
-1.455,-0.00131793484828753
-1.45375,-0.00133548151142892
-1.4525,-0.00136304531046585
-1.45125,-0.00140757848272967
-1.45,-0.00147126925825028
-1.44875,-0.00155100779073476
-1.4475,-0.00163900547483582
-1.44625,-0.00172441863447783
-1.445,-0.00179568011977782
-1.44375,-0.00184306032071997
-1.4425,-0.00186083388669211
-1.44125,-0.00184851655932185
-1.44,-0.00181094852905277
-1.43875,-0.00175729625076907
-1.4375,-0.00169918998336989
-1.43625,-0.00164831766406655
-1.435,-0.00161395891836296
-1.43375,-0.00160104773731306
-1.4325,-0.00160922820920859
-1.43125,-0.00163307261568322
-1.43,-0.00166337266201493
-1.42875,-0.00168925537118645
-1.4275,-0.00170071092522833
-1.42625,-0.00169094454407092
-1.425,-0.00165795933774053
-1.42375,-0.00160502900293784
-1.4225,-0.0015400441080402
-1.42125,-0.00147391043716396
-1.42,-0.0014182798601544
-1.41875,-0.00138304216311932
-1.4175,-0.00137415462197085
-1.41625,-0.00139234443437373
-1.415,-0.00143295771709916
-1.41375,-0.00148693734244586
-1.4125,-0.00154272526122292
-1.41125,-0.00158873498452809
-1.41,-0.00161585619883589
-1.40875,-0.00161936918414292
-1.4075,-0.00159982217496712
-1.40625,-0.00156275751215013
-1.405,-0.00151741931402436
-1.40375,-0.00147468897498025
-1.4025,-0.00144461792560004
-1.40125,-0.00143409341455298
-1.4,-0.00144521196424314
-1.39875,-0.00147473550982523
-1.3975,-0.0015147027894128
-1.39625,-0.00155404823969444
-1.395,-0.00158093156698819
-1.39375,-0.00158529932632361
-1.3925,-0.0015610560051352
-1.39125,-0.00150731017197426
-1.39,-0.00142847144233154
-1.38875,-0.00133326835875685
-1.3875,-0.00123290317817894
-1.38625,-0.00113866338532216
-1.385,-0.00105947198155428
-1.38375,-0.000999962840872186
-1.3825,-0.000959544697327874
-1.38125,-0.000932623822051505
-1.38,-0.000909897439140316
-1.37875,-0.000880470978352214
-1.3775,-0.000834388462171187
-1.37625,-0.000764990097959655
-1.375,-0.000670504842803484
-1.37375,-0.000554535938590029
-1.3725,-0.000425421221826104
-1.37125,-0.000294644473171956
-1.37,-0.000174575966206599
-1.36875,-7.59681683062683e-05
-1.3675,-5.78104741299301e-06
-1.36625,3.41296664184684e-05
-1.365,4.71888285950514e-05
-1.36375,4.11609250556155e-05
-1.3625,2.62943295035919e-05
-1.36125,1.2900566777333e-05
-1.36,8.90055346352563e-06
-1.35875,1.79547018013682e-05
-1.3575,3.8620805432152e-05
-1.35625,6.46535616313412e-05
-1.355,8.63137398999629e-05
-1.35375,9.24412553647568e-05
-1.3525,7.29234950236823e-05
-1.35125,2.10248438346514e-05
-1.35,-6.4994931915423e-05
-1.34875,-0.000181346339228083
-1.3475,-0.000319330895501302
-1.34625,-0.000466968901806229
-1.345,-0.000611339291932265
-1.34375,-0.000741156042389779
-1.3425,-0.000848960115363578
-1.34125,-0.000932391241741993
-1.34,-0.000994313844105755
-1.33875,-0.0010418675161209
-1.3375,-0.00108465844764949
-1.33625,-0.00113240959626704
-1.335,-0.00119254791464477
-1.33375,-0.00126831222729362
-1.3325,-0.00135784451701745
-1.33125,-0.00145443407484319
-1.33,-0.00154782510172784
-1.32875,-0.00162633987718061
-1.3275,-0.00167940722651055
-1.32625,-0.00169991076067013
-1.325,-0.00168576430003455
-1.32375,-0.00164037302671214
-1.3225,-0.00157196448910122
-1.32125,-0.00149196829692728
-1.32,-0.00141272381793792
-1.31875,-0.00134494171643502
-1.3175,-0.00129549408146304
-1.31625,-0.00126606886577507
-1.315,-0.00125296599887354
-1.31375,-0.00124802345133193
-1.3125,-0.00124047654600653
-1.31125,-0.00121940414122094
-1.31,-0.0011762289050885
-1.30875,-0.00110664847470596
-1.3075,-0.0010115434941356
-1.30625,-0.000896739192240772
-1.305,-0.000771746387568289
-1.30375,-0.000647724613872354
-1.3025,-0.000535035063831746
-1.30125,-0.000440918221497145
-1.3,-0.000367870478679826
-1.29875,-0.000313094925841709
-1.2975,-0.000269100326091225
-1.29625,-0.000225304348011707
-1.295,-0.000170350117639172
-1.29375,-9.46627603164677e-05
-1.2925,7.37512240100121e-06
-1.29125,0.00013616718817528
-1.29,0.000286797017412126
-1.28875,0.000450006846557977
-1.2875,0.00061404786758278
-1.28625,0.000767083201294392
-1.285,0.000899661567630814
-1.28375,0.0010066740140602
-1.2825,0.00108832704435871
-1.28125,0.00114995787930924
-1.28,0.00120077526240253
-1.27875,0.00125176744400217
-1.2775,0.00131318196369747
-1.27625,0.00139215960676467
-1.275,0.00149111780595772
-1.27375,0.00160723361341345
-1.2725,0.00173305167852834
-1.27125,0.00185804430864689
-1.27,0.00197084665976964
-1.26875,0.00206174178180105
-1.2675,0.00212482035093725
-1.26625,0.00215927885438911
-1.265,0.00216957978393922
-1.26375,0.00216448848593956
-1.2625,0.00215518712042803
-1.26125,0.00215281541308658
-1.26,0.00216597346091173
-1.25875,0.00219881026083318
-1.2575,0.00225014866468497
-1.25625,0.00231376382803796
-1.255,0.00237968336816364
-1.25375,0.00243626363773007
-1.2525,0.00247267450898818
-1.25125,0.0024812585663912
-1.25,0.00245918922224398
-1.24875,0.00240904893144182
-1.2475,0.00233824972354646
-1.24625,0.00225743876639938
-1.245,0.00217818101201381
-1.24375,0.0021103935349984
-1.2425,0.0020601543091207
-1.24125,0.00202842734535603
-1.24,0.00201093941957951
-1.23875,0.00199914576113812
-1.2375,0.00198207083524623
-1.23625,0.00194870413191747
-1.235,0.00189046760598509
-1.23375,0.00180316526022625
-1.2325,0.00168794626488404
-1.23125,0.0015511060461894
-1.23,0.00140280875889438
-1.22875,0.00125497488959076
-1.2275,0.00111874261070157
-1.22625,0.00100208925118231
-1.225,0.000908209839825623
-1.22375,0.000835001362619859
-1.2225,0.000775675124013865
-1.22125,0.000720322081093734
-1.22,0.000658153635545438
-1.21875,0.000579992984584165
-1.2175,0.000480442153341309
-1.21625,0.000359188446962472
-1.215,0.000221174180506021
-1.21375,7.56446537112556e-05
-1.2125,-6.57265040851202e-05
-1.21125,-0.000191288618704401
-1.21,-0.000291910984644113
-1.20875,-0.000362903781604395
-1.2075,-0.000404909757910875
-1.20625,-0.00042364512620297
-1.205,-0.000428618569680106
-1.20375,-0.000431073295706694
-1.2025,-0.000441519555798914
-1.20125,-0.000467391135398306
-1.2,-0.000511400361488309
-1.19875,-0.000570968693461943
-1.1975,-0.000638808175652968
-1.19625,-0.000704509858012958
-1.195,-0.000756848792016193
-1.19375,-0.000786334054920864
-1.1925,-0.000787383697634956
-1.19125,-0.000759584836538717
-1.19,-0.000707805234313018
-1.18875,-0.000641219371563473
-1.1875,-0.000571462137026438
-1.18625,-0.000510228938458469
-1.185,-0.000466804405134765
-1.18375,-0.000446108753130145
-1.1825,-0.0004477305024579
-1.18125,-0.000466121088645418
-1.18,-0.000491868390129786
-1.17875,-0.00051380681128122
-1.1775,-0.000521555897312185
-1.17625,-0.00050789933948396
-1.175,-0.000470404791983614
-1.17375,-0.000411934710002668
-1.1725,-0.000340026155414586
-1.17125,-0.000265315259967797
-1.17,-0.000199284335643608
-1.16875,-0.000151757091656025
-1.1675,-0.000128717174781783
-1.16625,-0.000130987139568859
-1.165,-0.000154046943107226
-1.16375,-0.000188981031549621
-1.1625,-0.000224356671861981
-1.16125,-0.000248686102650713
-1.16,-0.000252939047980993
-1.15875,-0.000232481600870681
-1.1575,-0.000187986244517065
-1.15625,-0.000125188797181086
-1.155,-5.36182755505072e-05
-1.15375,1.54573389830088e-05
-1.1525,7.15019777167763e-05
-1.15125,0.000107063480791144
-1.15,0.00011942926996145
-1.14875,0.000111206299010803
-1.1475,8.97487876120035e-05
-1.14625,6.55771361110601e-05
-1.145,5.007824020673e-05
-1.14375,5.29587423790643e-05
-1.1425,8.0071480480681e-05
-1.14125,0.000132155316616031
-1.14,0.00020472209841388
-1.13875,0.000289026829151318
-1.1375,0.000373906461025315
-1.13625,0.000448167795250999
-1.135,0.000503043150320994
-1.13375,0.000534126555597333
-1.1325,0.00054232333891718
-1.13125,0.00053363917900362
-1.13,0.000517894552044158
-1.12875,0.000506609874311214
-1.1275,0.000510468959395136
-1.12625,0.000536944628331824
-1.125,0.000588681279465969
-1.12375,0.000662982317518677
-1.1225,0.000752425568805131
-1.12125,0.000846433122371759
-1.12,0.000933519601402403
-1.11875,0.00100379518578232
-1.1175,0.00105114933853419
-1.11625,0.00107457813051799
-1.115,0.00107837553727843
-1.11375,0.00107119913262303
-1.1125,0.00106420608217331
-1.11125,0.001068604242518
-1.11,0.00109315001135778
-1.10875,0.00114221743008284
-1.1075,0.00121489523976427
-1.10625,0.00130523630077377
-1.105,0.00140353198204415
-1.10375,0.00149836689127379
-1.1025,0.00157908635207196
-1.10125,0.00163814310056624
-1.1,0.00167274829982832
-1.09875,0.00168544864364555
-1.0975,0.00168355277482537
-1.09625,0.00167754924000189
-1.095,0.00167880381006338
-1.09375,0.00169700465557072
-1.0925,0.00173797471912082
-1.09125,0.00180239411133306
-1.09,0.00188567025795367
-1.08875,0.00197889503101179
-1.0875,0.00207067677407547
-1.08625,0.00214952969785364
-1.085,0.00220633991833706
-1.08375,0.00223631988144107
-1.0825,0.00223998219755799
-1.08125,0.0022229559558746
-1.08,0.00219472625044666
-1.07875,0.00216653689089762
-1.0775,0.00214886275042904
-1.07625,0.00214903929846532
-1.075,0.00216964880259388
-1.07375,0.00220801307960231
-1.0725,0.00225681456629173
-1.07125,0.0023056687302213
-1.07,0.00234336841258007
-1.06875,0.00236037461366634
-1.0675,0.00235097914938165
-1.06625,0.00231460180377776
-1.065,0.00225594282003746
-1.06375,0.00218400427780325
-1.0625,0.0021101832387768
-1.06125,0.00204579087253511
-1.06,0.00199953730390243
-1.05875,0.00197560980906011
-1.0575,0.00197279826273607
-1.05625,0.00198478591206957
-1.055,0.0020014716342787
-1.05375,0.00201107391559565
-1.0525,0.00200264425761529
-1.05125,0.00196845133632361
-1.05,0.00190565573097852
-1.04875,0.00181689276970735
-1.0475,0.00170968601496736
-1.04625,0.00159483866045658
-1.045,0.00148409995804627
-1.04375,0.00138758423689972
-1.0425,0.00131156729307986
-1.04125,0.0012572035872708
-1.04,0.00122039840702352
-1.03875,0.00119276886917034
-1.0375,0.00116347756226339
-1.03625,0.00112162012209726
-1.035,0.00105868664946149
-1.03375,0.00097050839241076
-1.0325,0.000858218648608795
-1.03125,0.000728050099110728
-1.03,0.000590052771418912
-1.02875,0.000455978811416472
-1.0275,0.000336744217627785
-1.02625,0.000240053501134577
-1.025,0.000168782442941756
-1.02375,0.000120466014078286
-1.0225,8.79137500868992e-05
-1.02125,6.07789831305697e-05
-1.02,2.78071795970921e-05
-1.01875,-2.06586447537562e-05
-1.0175,-9.04897264604481e-05
-1.01625,-0.00018244037765757
-1.015,-0.000291955976952848
-1.01375,-0.000410109571449334
-1.0125,-0.00052546911603115
-1.01125,-0.000626548999556094
-1.01,-0.000704314145288541
-1.00875,-0.000754112714184284
-1.0075,-0.000776581116525433
-1.00625,-0.00077739720038044
-1.005,-0.000766009077941972
-1.00375,-0.00075358375119576
-1.0025,-0.0007505426031131
-1.00125,-0.000764218361849249
-1,-0.000797211920005167
-0.99875,-0.000846831044277999
-0.9975,-0.00090568813766009
-0.99625,-0.000963309567640431
-0.995,-0.00100845892770657
-0.99375,-0.00103169546058665
-0.9925,-0.00102754319490153
-0.99125,-0.000995731703128863
-0.99,-0.000941280943473239
-0.98875,-0.000873501312134095
-0.9875,-0.000804127389481584
-0.98625,-0.000744905019081425
-0.985,-0.000705112041864891
-0.98375,-0.000689600568494846
-0.9825,-0.000697830465099474
-0.98125,-0.000724070286477502
-0.98,-0.000758680207275182
-0.97875,-0.000790230946601798
-0.9775,-0.000808050540243259
-0.97625,-0.000804613897132913
-0.975,-0.000777176261781588
-0.97375,-0.000728297676892129
-0.9725,-0.000665235111054322
-0.97125,-0.000598381674486973
-0.97,-0.000539034320175219
-0.96875,-0.000496912754889187
-0.9675,-0.00047799860316696
-0.96625,-0.000483228368181462
-0.965,-0.00050831833116641
-0.96375,-0.000544708848346893
-0.9625,-0.000581429233516538
-0.96125,-0.000607537268410954
-0.96,-0.000614603177127085
-0.95875,-0.00059861577017247
-0.9575,-0.000560855639641233
-0.95625,-0.000507612913526844
-0.955,-0.000448880098284505
-0.95375,-0.000396267562211962
-0.9525,-0.000360510458082548
-0.95125,-0.000349101694151816
-0.95,-0.000364629205722461
-0.94875,-0.000404199863141747
-0.9475,-0.000460027354140048
-0.94625,-0.000521037639785282
-0.945,-0.00057519873308883
-0.94375,-0.000612102903924775
-0.9425,-0.000625180249078235
-0.94125,-0.000612999087120548
-0.94,-0.000579413572679293
-0.93875,-0.000532618517951665
-0.9375,-0.000483324536387853
-0.93625,-0.000442372894771198
-0.935,-0.000418272614741328
-0.93375,-0.00041525070946886
-0.9325,-0.000432287968419266
-0.93125,-0.000463318109619873
-0.93,-0.000498505512209562
-0.92875,-0.000526356291919383
-0.9275,-0.000536255759112421
-0.92625,-0.000520848398565948
-0.925,-0.000477662313023379
-0.92375,-0.000409625265464251
-0.9225,-0.000324447372614631
-0.92125,-0.000233045894541059
-0.92,-0.000147289249750635
-0.91875,-7.74828091218896e-05
-0.9175,-3.01705599238592e-05
-0.91625,-6.79271689953348e-06
-0.915,-3.482103912089e-06
-0.91375,-1.19895242186349e-05
-0.9125,-2.15411865091132e-05
-0.91125,-2.12837912923767e-05
-0.91,-2.78796622051061e-06
-0.90875,3.80139303274797e-05
-0.9075,9.99160144409478e-05
-0.90625,0.00017668226298844
-0.905,0.000258319946982525
-0.90375,0.000333139430993115
-0.9025,0.000390234286868343
-0.90125,0.000421847858216337
-0.9,0.000425046288766593
-0.89875,0.000402312496391246
-0.8975,0.000360980395118799
-0.89625,0.000311653099597062
-0.895,0.000265896861999275
-0.89375,0.000233681817622662
-0.8925,0.000221189419024891
-0.89125,0.0002295291514191
-0.89,0.000254601892316031
-0.88875,0.000288048499411327
-0.8875,0.000319071326554896
-0.88625,0.000336812733739783
-0.885,0.000332812544428894
-0.88375,0.000302956790313391
-0.8825,0.000248445854097823
-0.88125,0.000175601853626447
-0.88,9.4595973123749e-05
-0.87875,1.73369876699719e-05
-0.8775,-4.50742834873088e-05
-0.87625,-8.47403112162626e-05
-0.875,-9.86114013474626e-05
-0.87375,-8.90233958479343e-05
-0.8725,-6.31007507492267e-05
-0.87125,-3.11986688198477e-05
-0.87,-4.66094492124586e-06
-0.86875,6.68390378924727e-06
-0.8675,-3.28597105150509e-06
-0.86625,-3.56478884478729e-05
-0.865,-8.62349714167212e-05
-0.86375,-0.000146565998304526
-0.8625,-0.000205706851923723
-0.86125,-0.000252716006473164
-0.86,-0.000279140749143892
-0.85875,-0.000280938519869724
-0.8575,-0.000259366020097999
-0.85625,-0.000220712459290257
-0.855,-0.000175006305116657
-0.85375,-0.000133941186022351
-0.8525,-0.000108387179740337
-0.85125,-0.000106019747672789
-0.85,-0.000129644505570479
-0.84875,-0.000176603907118648
-0.8475,-0.00023934905189932
-0.84625,-0.000307034563376179
-0.845,-0.000367843958422352
-0.84375,-0.000411571171578541
-0.8425,-0.00043183401185359
-0.84125,-0.000427373920670829
-0.84,-0.000402204283375644
-0.83875,-0.000364669782419298
-0.8375,-0.000325629946766641
-0.83625,-0.000296083546669006
-0.835,-0.00028471333206689
-0.83375,-0.000295940485792347
-0.8325,-0.000328960742889184
-0.83125,-0.000377939633849649
-0.83,-0.000433281805891993
-0.82875,-0.000483729908425816
-0.8275,-0.000518888667387912
-0.82625,-0.000531593702526647
-0.825,-0.00051952872957566
-0.82375,-0.000485737314807205
-0.8225,-0.000438002115519504
-0.82125,-0.000387265773975812
-0.82,-0.000345370638055291
-0.81875,-0.000322540352029285
-0.8175,-0.000325178026864823
-0.81625,-0.000354522131323209
-0.815,-0.000406443799442178
-0.81375,-0.000472375335324004
-0.8125,-0.000541171471834519
-0.81125,-0.000601557753695596
-0.81,-0.000644636408161479
-0.80875,-0.000665826141017963
-0.8075,-0.000665776795993683
-0.80625,-0.000650131750719773
-0.805,-0.000628264756839414
-0.80375,-0.000611234963256357
-0.8025,-0.000609324707794681
-0.80125,-0.000629691657349507
-0.8,-0.000674713288425016
-0.79875,-0.000741408466096362
-0.7975,-0.000822017364403291
-0.79625,-0.000905596880695959
-0.795,-0.000980339581734119
-0.79375,-0.00103614330977887
-0.7925,-0.00106680937948916
-0.79125,-0.00107132553994499
-0.79,-0.00105399629919052
-0.78875,-0.00102348302148622
-0.7875,-0.000990967808301265
-0.78625,-0.000967758492419299
-0.785,-0.000962813318590816
-0.78375,-0.000980773590094714
-0.7825,-0.00102097760612297
-0.78125,-0.00107763734999849
-0.78,-0.0011410972865411
-0.77875,-0.00119993373129381
-0.7775,-0.00124349132875723
-0.77625,-0.00126427456336673
-0.775,-0.0012595936899741
-0.77375,-0.001232105721373
-0.7725,-0.00118921866745037
-0.77125,-0.00114153027536561
-0.77,-0.00110057718188877
-0.76875,-0.00107631767077053
-0.7675,-0.00107492445972361
-0.76625,-0.00109743193454775
-0.765,-0.00113952548328048
-0.76375,-0.0011924659126216
-0.7625,-0.00124495206943821
-0.76125,-0.00128557596604348
-0.76,-0.00130533937860171
-0.75875,-0.0012996060363813
-0.7575,-0.00126902756963633
-0.75625,-0.00121931334505972
-0.755,-0.00115996897395345
-0.75375,-0.00110224708709637
-0.7525,-0.00105667635614204
-0.75125,-0.00103070184431001
-0.75,-0.00102701589375368
-0.74875,-0.00104296619514898
-0.7475,-0.00107112484626271
-0.74625,-0.00110087760215151
-0.745,-0.00112074202021585
-0.74375,-0.0011209401177073
-0.7425,-0.00109559971114987
-0.74125,-0.00104403715318024
-0.74,-0.000970883620415995
-0.73875,-0.000885118983149314
-0.7375,-0.00079822840957638
-0.73625,-0.000721799542318975
-0.735,-0.000665040611728906
-0.73375,-0.000632811639931143
-0.7325,-0.000624645872731708
-0.73125,-0.00063494354731523
-0.73,-0.000654253726207444
-0.72875,-0.00067139539683881
-0.7275,-0.000676005309624339
-0.72625,-0.000660924235289519
-0.725,-0.000623822706783954
-0.72375,-0.000567715532269812
-0.7225,-0.00050034236803231
-0.72125,-0.000432590606381648
-0.72,-0.000376237252666241
-0.71875,-0.000341430783583481
-0.7175,-0.0003344859236277
-0.71625,-0.00035653265835734
-0.715,-0.000403304908110403
-0.71375,-0.000466060566568004
-0.7125,-0.000533436577942231
-0.71125,-0.000593896050493332
-0.71,-0.000638239470718938
-0.70875,-0.000661555316507129
-0.7075,-0.000664147580797802
-0.70625,-0.000651309988681371
-0.705,-0.000632072210554283
-0.70375,-0.00061716112983086
-0.7025,-0.000616540754036351
-0.70125,-0.000637061668860514
-0.7,-0.000680798851988222
-0.69875,-0.000744464532046749
-0.6975,-0.00081997892721683
-0.69625,-0.000896057346741811
-0.695,-0.000960524589833948
-0.69375,-0.00100288846684736
-0.6925,-0.00101655328134474
-0.69125,-0.00100012729585953
-0.69,-0.000957581234434167
-0.68875,-0.000897314793125424
-0.6875,-0.000830340865595804
-0.68625,-0.000767901719184738
-0.685,-0.000718995001594019
-0.68375,-0.000688400358821117
-0.6825,-0.000675684091446966
-0.68125,-0.000675366225767102
-0.68,-0.000678170055615055
-0.67875,-0.000673112055142715
-0.6775,-0.000650027917092235
-0.67625,-0.00060195220060122
-0.675,-0.000526751283273135
-0.67375,-0.000427651397652458
-0.6725,-0.00031263177256652
-0.67125,-0.000192856088775012
-0.67,-8.04185904861475e-05
-0.66875,1.417431910411e-05
-0.6675,8.42137341244144e-05
-0.66625,0.000128145339779694
-0.665,0.000149784407773381
-0.66375,0.000157394041692408
-0.6625,0.000161822961622691
-0.66125,0.000174047820840045
-0.66,0.000202650248988857
-0.65875,0.000251855364678559
-0.6575,0.000320596618429129
-0.65625,0.000402739797618231
-0.655,0.000488342781375427
-0.65375,0.000565708743691831
-0.6525,0.000623869383614308
-0.65125,0.000654966847853686
-0.65,0.000655953361754254
-0.64875,0.000629217570813445
-0.6475,0.000582049957900374
-0.64625,0.000525085700549192
-0.645,0.000470012754983076
-0.64375,0.000427012889795382
-0.6425,0.00040255527510878
-0.64125,0.000398090654970389
-0.64,0.000409891587068213
-0.63875,0.000429982331808437
-0.6375,0.000447946696378782
-0.63625,0.000453297463325012
-0.635,0.000437929635963962
-0.63375,0.000398068690737212
-0.6325,0.000335238418094671
-0.63125,0.000256065796467014
-0.63,0.000171005447459598
-0.62875,9.22284584814919e-05
-0.6275,3.10803746632556e-05
-0.62625,-4.31099854155221e-06
-0.625,-1.06798939693801e-05
-0.62375,9.83796947059547e-06
-0.6225,5.03002295609077e-05
-0.62125,0.000100513771005159
-0.62,0.000149275253114371
-0.61875,0.000186874483191662
-0.6175,0.000207286244042933
-0.61625,0.000209507553758982
-0.615,0.000197753944639122
-0.61375,0.000180523740874857
-0.6125,0.00016872925941769
-0.61125,0.000173241173629674
-0.61,0.000202375857084819
-0.60875,0.000259950689499744
-0.6075,0.000344370154237541
-0.60625,0.00044887420876998
-0.605,0.000562824522498689
-0.60375,0.000673784202206221
-0.6025,0.000770023615997668
-0.60125,0.000842916785052498
-0.6,0.000888645950191934
-0.59875,0.000908825637762844
-0.5975,0.000909962561458871
-0.59625,0.000901892944352417
-0.595,0.000895487026487756
-0.59375,0.00090008968427753
-0.5925,0.000921317024004978
-0.59125,0.000959756115129678
-0.59,0.00101081223015431
-0.58875,0.00106564714135515
-0.5875,0.00111299853750296
-0.58625,0.00114156668851477
-0.585,0.00114249094989555
-0.58375,0.00111132391238843
-0.5825,0.00104902302642422
-0.58125,0.000961773961852312
-0.58,0.000859725987889688
-0.57875,0.000754881455006271
-0.5775,0.000658542780150467
-0.57625,0.000578899705407936
-0.575,0.0005193594584842
-0.57375,0.000477980771613239
-0.5725,0.000448043712493028
-0.57125,0.000419584463004554
-0.57,0.000381621758148836
-0.56875,0.000324656027402842
-0.5675,0.000242867803060248
-0.56625,0.000135471216450417
-0.565,6.93401640939627e-06
-0.56375,-0.000133929497375307
-0.5625,-0.000275797595624118
-0.56125,-0.00040727173018802
-0.56,-0.000519374435177768
-0.55875,-0.00060749222537918
-0.5575,-0.000672299776656883
-0.55625,-0.000719531825328461
-0.555,-0.00075872597317486
-0.55375,-0.000801178655864977
-0.5525,-0.00085747551798437
-0.55125,-0.00093512337062404
-0.55,-0.00103686135732559
-0.54875,-0.0011600410368631
-0.5475,-0.00129716315501957
-0.54625,-0.00143743398177067
-0.545,-0.00156905560830156
-0.54375,-0.00168178472315582
-0.5425,-0.00176914112923673
-0.54125,-0.00182971674838417
-0.54,-0.00186733758408663
-0.53875,-0.00189013386726636
-0.5375,-0.00190872942095884
-0.53625,-0.00193386545653444
-0.535,-0.00197393571069404
-0.53375,-0.00203302276981991
-0.5325,-0.00210991377637511
-0.53125,-0.00219828131875642
-0.53,-0.00228795011918509
-0.52875,-0.00236700718039763
-0.5275,-0.00242435081194055
-0.52625,-0.00245209557871578
-0.525,-0.00244723190540636
-0.52375,-0.00241218046287451
-0.5225,-0.00235420923521017
-0.52125,-0.00228388459102617
-0.52,-0.00221283151647127
-0.51875,-0.00215122294702209
-0.5175,-0.00210557061624953
-0.51625,-0.0020773610652261
-0.515,-0.00206282716624981
-0.51375,-0.00205385113827416
-0.5125,-0.00203980483595464
-0.51125,-0.00200998601263448
-0.51,-0.00195612456511515
-0.50875,-0.00187433386493952
-0.5075,-0.00176604109560018
-0.50625,-0.00163776163177671
-0.505,-0.0014998395052187
-0.50375,-0.00136439550257018
-0.5025,-0.00124284561919268
-0.50125,-0.0011435204924388
-0.5,-0.00106996639806424
-0.49875,-0.00102031912307014
-0.4975,-0.000987839388351634
-0.49625,-0.000962472668496141
-0.495,-0.00093314605937553
-0.49375,-0.000890333345563571
-0.4925,-0.000828266381426704
-0.49125,-0.000746242765332395
-0.49,-0.000648783344349356
-0.48875,-0.000544695456361162
-0.4875,-0.000445253093982737
-0.48625,-0.000361810023074781
-0.485,-0.000303323709572983
-0.48375,-0.000274379864935006
-0.4825,-0.000274195673014245
-0.48125,-0.000296788395585436
-0.48,-0.000332231026172353
-0.47875,-0.000368752997684844
-0.4775,-0.0003952819598139
-0.47625,-0.000403844836580721
-0.475,-0.000391227127070172
-0.47375,-0.000359529707628633
-0.4725,-0.000315590501245964
-0.47125,-0.000269442056888995
-0.47,-0.000232079446043937
-0.46875,-0.000212958063431374
-0.4675,-0.000217794747680295
-0.46625,-0.000247217405089756
-0.465,-0.000296554127289814
-0.46375,-0.000356757264169223
-0.4625,-0.000416266870474166
-0.46125,-0.000463469524085953
-0.46,-0.000489222866981432
-0.45875,-0.000488818816954917
-0.4575,-0.000462920053174172
-0.45625,-0.000417336968743348
-0.455,-0.000361769319545776
-0.45375,-0.000307755439342891
-0.4525,-0.000266191482485651
-0.45125,-0.000244950572691502
-0.45,-0.00024718279810049
-0.44875,-0.000270687780806483
-0.4475,-0.000308447208613421
-0.44625,-0.000350178219397756
-0.445,-0.000384620522082283
-0.44375,-0.000402091542324456
-0.4425,-0.000396690875162558
-0.44125,-0.000367604593918911
-0.44,-0.00031926179756348
-0.43875,-0.000260398412050909
-0.4375,-0.000202238800664662
-0.43625,-0.000156109971499439
-0.435,-0.000130965091456404
-0.43375,-0.000131406664960859
-0.4325,-0.000156689281788673
-0.43125,-0.000200889457022867
-0.43,-0.000254163326355433
-0.42875,-0.000304849475362904
-0.4275,-0.000342013407541965
-0.42625,-0.000357851974671988
-0.425,-0.000349355356859104
-0.42375,-0.000318864262288804
-0.4225,-0.00027348934759266
-0.42125,-0.000223564604070409
-0.42,-0.000180409934806551
-0.41875,-0.000153822889401674
-0.4175,-0.000149872997994785
-0.41625,-0.000169543883134044
-0.415,-0.000208514349302475
-0.41375,-0.00025807410040505
-0.4125,-0.000306978200021321
-0.41125,-0.000343896198232808
-0.41,-0.000359927630764313
-0.40875,-0.000350558591634148
-0.4075,-0.000316594147246924
-0.40625,-0.000263932763479682
-0.405,-0.000202306521772966
-0.40375,-0.000143230429972688
-0.4025,-9.75236598000454e-05
-0.40125,-7.29325766340316e-05
-0.4,-7.24368221329647e-05
-0.39875,-9.3630830159589e-05
-0.3975,-0.000129267951622769
-0.39625,-0.000168826442148176
-0.395,-0.000200808008759711
-0.39375,-0.000215301894567161
-0.3925,-0.000206195986874505
-0.39125,-0.000172486174703172
-0.39,-0.000118436290255599
-0.38875,-5.26431931532719e-05
-0.3875,1.37829178835197e-05
-0.38625,6.96088236044773e-05
-0.385,0.000105962152575514
-0.38375,0.000118315701092819
-0.3825,0.000107488705917351
-0.38125,7.94758069342565e-05
-0.38,4.41836097567113e-05
-0.37875,1.33193829615292e-05
-0.3775,-2.16269564819379e-06
-0.37625,5.52579932265747e-06
-0.375,3.93398801419482e-05
-0.37375,9.68410660486533e-05
-0.3725,0.000170776727400694
-0.37125,0.000250625740611341
-0.37,0.000324835160192644
-0.36875,0.000383329408651239
-0.3675,0.000419720030243945
-0.36625,0.000432670901002564
-0.365,0.000426126743457814
-0.36375,0.000408408351730173
-0.3625,0.000390369152106582
-0.36125,0.000382954956492188
-0.36,0.000394693373439503
-0.35875,0.000429738640593987
-0.3575,0.000486939227387297
-0.35625,0.000560063569532483
-0.355,0.000639060386586459
-0.35375,0.000712110307887111
-0.3525,0.000768106680727731
-0.35125,0.000799036592867129
-0.35,0.000801680978468135
-0.34875,0.000778240385961379
-0.3475,0.000735797255440027
-0.34625,0.000684753252287942
-0.345,0.000636529809957799
-0.34375,0.000600999992527302
-0.3425,0.000584273121766374
-0.34125,0.00058738364171021
-0.34,0.000606132442222181
-0.33875,0.000632024177146078
-0.3375,0.000654087399847251
-0.33625,0.000661261086176961
-0.335,0.000644870655459232
-0.33375,0.000600603222422193
-0.3325,0.000529502064215281
-0.33125,0.000437792628900636
-0.33,0.000335619057234149
-0.32875,0.000234933882775618
-0.3275,0.000146945358709873
-0.32625,7.97061345982514e-05
-0.325,3.64477255787606e-05
-0.32375,1.50240061670444e-05
-0.3225,8.49650599446639e-06
-0.32125,6.68905699484175e-06
-0.32,-1.56430018996927e-06
-0.31875,-2.58993826329676e-05
-0.3175,-7.22053255317883e-05
-0.31625,-0.000141258828529108
-0.315,-0.000228501558285124
-0.31375,-0.000324956163947362
-0.3125,-0.000419085131581858
-0.31125,-0.000499250088091517
-0.31,-0.000556244766587203
-0.30875,-0.000585274948269355
-0.3075,-0.000586916104666172
-0.30625,-0.000566910753622229
-0.305,-0.000534926462241362
-0.30375,-0.000502516112565399
-0.3025,-0.000480642483670637
-0.30125,-0.000477297068948044
-0.3,-0.000495795114798868
-0.29875,-0.000534140502410048
-0.2975,-0.000585549328888801
-0.29625,-0.00063999380562171
-0.295,-0.000686480223278995
-0.29375,-0.000715596437640413
-0.2925,-0.000721710673391786
-0.29125,-0.000704271346194699
-0.29,-0.000667958952350033
-0.28875,-0.000621744741869372
-0.2875,-0.000577066989606636
-0.28625,-0.000545438723342762
-0.285,-0.000535961981419819
-0.28375,-0.000553338926366851
-0.2825,-0.000596861852306137
-0.28125,-0.000660572396826625
-0.28,-0.000734512810074098
-0.27875,-0.00080682787191476
-0.2775,-0.000866315212983205
-0.27625,-0.000904842914194817
-0.275,-0.000919029908992051
-0.27375,-0.000910822973575025
-0.2725,-0.000886935019
-0.27125,-0.000857316611662796
-0.27,-0.00083293596309412
-0.26875,-0.000823285607771658
-0.2675,-0.000834187763543924
-0.26625,-0.000866444870536827
-0.265,-0.000915629311410264
-0.26375,-0.000973009222343249
-0.2625,-0.00102741318674418
-0.26125,-0.00106768551076659
-0.26,-0.00108519713729791
-0.25875,-0.00107578268502373
-0.2575,-0.00104064201806959
-0.25625,-0.000986081781673679
-0.255,-0.000922227930282697
-0.25375,-0.000860953814643745
-0.2525,-0.000813384007412415
-0.25125,-0.000787501154844085
-0.25,-0.000786436925836356
-0.24875,-0.000807841244679207
-0.2475,-0.000844418956020378
-0.24625,-0.0008854945216965
-0.245,-0.000919316722391683
-0.24375,-0.000935637311291083
-0.2425,-0.000927944249402687
-0.24125,-0.000894797667035965
-0.24,-0.000840017325743989
-0.23875,-0.000771773767148901
-0.2375,-0.000700792122021849
-0.23625,-0.000637982068953043
-0.235,-0.000591969786976208
-0.23375,-0.000567122936587812
-0.2325,-0.000562550705136735
-0.23125,-0.000572268906736283
-0.23,-0.000586453221187954
-0.22875,-0.00059354034223948
-0.2275,-0.000582776041842888
-0.22625,-0.0005466293140229
-0.225,-0.000482467613512893
-0.22375,-0.000393125912829688
-0.2225,-0.00028633220889981
-0.22125,-0.000173158392712599
-0.22,-6.5769067106871e-05
-0.21875,2.5114318602486e-05
-0.2175,9.24607315093804e-05
-0.21625,0.00013433866799079
-0.215,0.000154188203722529
-0.21375,0.000159952524331088
-0.2125,0.000162258421728144
-0.21125,0.000171984267903684
-0.21,0.000197740453880184
-0.20875,0.000243890118229752
-0.2075,0.000309583748058295
-0.20625,0.000388950635417735
-0.205,0.000472329148094055
-0.20375,0.000548295062284468
-0.2025,0.000606126567413068
-0.20125,0.000638177125917903
-0.2,0.000641575026182598
-0.19875,0.000618855681760836
-0.1975,0.000577435713949337
-0.19625,0.000528063557309621
-0.195,0.000482529261151877
-0.19375,0.000451096520597926
-0.1925,0.000440276341112462
-0.19125,0.000451495288225339
-0.19,0.000480909636840751
-0.18875,0.000520312155672003
-0.1875,0.000558922060398881
-0.18625,0.000585746649007727
-0.185,0.000592042635880785
-0.18375,0.000573289240418547
-0.1825,0.000530192277168975
-0.18125,0.000468529686791068
-0.18,0.000397915474894185
-0.17875,0.000329721401885174
-0.1775,0.000274555111790701
-0.17625,0.000239872287113469
-0.175,0.000228324892784749
-0.17375,0.000237210906077443
-0.1725,0.000259061585533372
-0.17125,0.00028319589702967
-0.17,0.000297967972708816
-0.16875,0.000293289424463672
-0.1675,0.000262853789261776
-0.16625,0.000205515979793022
-0.165,0.000125532514215038
-0.16375,3.16648369189368e-05
-0.1625,-6.46607099680192e-05
-0.16125,-0.000151796952221549
-0.16,-0.000220400584395245
-0.15875,-0.000265412048776376
