t,low_f
-5.12,-0.0550532745988723
-5.11875,-0.0498595080063871
-5.1175,-0.0445942287584043
-5.11625,-0.0393541427071364
-5.115,-0.0342279550801789
-5.11375,-0.0292925009529235
-5.1125,-0.0246101907140028
-5.11125,-0.0202280131606239
-5.11,-0.016178049664353
-5.10875,-0.012479273926285
-5.1075,-0.00914028086150455
-5.10625,-0.00616239962820789
-5.105,-0.00354251741532388
-5.10375,-0.00127507412105024
-5.1025,0.00064697945095191
-5.10125,0.0022322004795816
-5.1,0.00349147745653986
-5.09875,0.00443937313544936
-5.0975,0.00509551601532789
-5.09625,0.00548547755815666
-5.095,0.00564073075068902
-5.09375,0.00559758075086521
-5.0925,0.00539517814593523
-5.09125,0.00507285864295472
-5.09,0.00466722768812358
-5.08875,0.00420958510728254
-5.0875,0.00372424924129225
-5.08625,0.00322805212351925
-5.085,0.00273097146209471
-5.08375,0.00223771537319485
-5.0825,0.00174998590345253
-5.08125,0.00126898071440377
-5.08,0.000797547393185194
-5.07875,0.000341483290518455
-5.0775,-9.02468987540856e-05
-5.07625,-0.000486341107939297
-5.075,-0.000834849157265531
-5.07375,-0.00112537751221052
-5.0725,-0.00135126691875727
-5.07125,-0.00151113938387679
-5.07,-0.00160942521904196
-5.06875,-0.00165581002033232
-5.0675,-0.00166374493742708
-5.06625,-0.00164825085887027
-5.065,-0.00162338543294972
-5.06375,-0.00159991909765359
-5.0625,-0.00158377388982393
-5.06125,-0.00157554402504775
-5.06,-0.00157112567009119
-5.05875,-0.00156330094272336
-5.0575,-0.00154398570681667
-5.05625,-0.00150665740444656
-5.055,-0.00144834540064075
-5.05375,-0.00137069325354648
-5.0525,-0.00127992739016447
-5.05125,-0.00118582632241717
-5.05,-0.00109989235647345
-5.04875,-0.00103303604808648
-5.0475,-0.000993265348242467
-5.04625,-0.000983956868163675
-5.045,-0.0010031224282807
-5.04375,-0.00104378595080725
-5.0425,-0.00109536597376337
-5.04125,-0.00114582629584905
-5.04,-0.00118418100178314
-5.03875,-0.00120275926087494
-5.0375,-0.00119866578554989
-5.03625,-0.00117415690046197
-5.035,-0.00113595548691222
-5.03375,-0.00109367637461829
-5.0325,-0.00105762419353149
-5.03125,-0.00103639537993023
-5.03,-0.00103486369673465
-5.02875,-0.00105304930954885
-5.0275,-0.00108608854780692
-5.02625,-0.00112525718475058
-5.025,-0.00115984829649441
-5.02375,-0.00117955320739495
-5.0225,-0.00117679812256355
-5.02125,-0.00114843236363635
-5.02,-0.00109638283977046
-5.01875,-0.0010272201288436
-5.0175,-0.000950784274958306
-5.01625,-0.000878105456558954
-5.015,-0.000818992698504758
-5.01375,-0.000779838340052891
-5.0125,-0.000762188960976193
-5.01125,-0.000762395612590289
-5.01,-0.000772365311179555
-5.00875,-0.000781254855691749
-5.0075,-0.000777810409281176
-5.00625,-0.000752859548848037
-5.005,-0.000701330831620338
-5.00375,-0.000623311139844107
-5.0025,-0.000523983729895505
-5.00125,-0.000412551000841555
-5,-0.000300350766244372
-4.99875,-0.000198480365612078
-4.9975,-0.000115423957305738
-4.99625,-5.5264245014346e-05
-4.995,-1.68960531835396e-05
-4.99375,5.63993732537384e-06
-4.9925,2.18082214843139e-05
-4.99125,4.24564467660317e-05
-4.99,7.73410852806496e-05
-4.98875,0.000132900646074662
-4.9875,0.000210841130604831
-4.98625,0.000307809624865019
-4.985,0.000416125516010894
-4.98375,0.000525390112458247
-4.9825,0.000624708171576752
-4.98125,0.00070509045929642
-4.98,0.000761462338316933
-4.97875,0.000793781929002659
-4.9775,0.000807051133090524
-4.97625,0.00081026576827434
-4.975,0.000814504124848387
-4.97375,0.000830506781544798
-4.9725,0.000866296206234767
-4.97125,0.000925442015222708
-4.97,0.00100636099255215
-4.96875,0.00110271130161316
-4.9675,0.00120473667912123
-4.96625,0.00130132812848461
-4.965,0.00138243250371221
-4.96375,0.00144126233248487
-4.9625,0.00147575574075927
-4.96125,0.00148897061755572
-4.96,0.00148838777240858
-4.95875,0.00148427837114614
-4.9575,0.00148742460363499
-4.95625,0.00150667499106649
-4.955,0.00154694955625375
-4.95375,0.00160818347284288
-4.9525,0.00168537278829826
-4.95125,0.00176962607768094
-4.95,0.00185001808766557
-4.94875,0.00191593285127628
-4.9475,0.00195940163765871
-4.94625,0.00197685583798754
-4.945,0.00196988017568619
-4.94375,0.00194485171323553
-4.9425,0.00191157292129981
-4.94125,0.00188114237225963
-4.94,0.00186348269148629
-4.93875,0.00186512255253062
-4.9375,0.0018877935386174
-4.93625,0.00192811473612454
-4.935,0.00197833420598184
-4.93375,0.00202795061572485
-4.9325,0.00206595133717666
-4.93125,0.0020832359660976
-4.93,0.0020746464852459
-4.92875,0.00204010301803604
-4.9275,0.00198462614863119
-4.92625,0.00191729194414073
-4.925,0.00184931869015208
-4.92375,0.00179163705248641
-4.9225,0.00175249239361755
-4.92125,0.00173568832159253
-4.92,0.00173986542725271
-4.91875,0.00175887868120976
-4.9175,0.00178313234865458
-4.91625,0.00180164275579211
-4.915,0.00180445895628546
-4.91375,0.00178489199636563
-4.9125,0.00174099511925086
-4.91125,0.00167597276151315
-4.91,0.00159748887685328
-4.90875,0.0015160283639083
-4.9075,0.00144260183257431
-4.90625,0.00138627879171321
-4.905,0.00135216951928852
-4.90375,0.00134034920052597
-4.9025,0.00134589187827225
-4.90125,0.00135992076528647
-4.9,0.00137147217712991
-4.89875,0.00136985947669621
-4.8975,0.00134703861877179
-4.89625,0.00129939036635718
-4.895,0.00122850019454881
-4.89375,0.00114081747878263
-4.8925,0.00104629750034492
-4.89125,0.000956264798733344
-4.89,0.000880915438179601
-4.88875,0.000827059062547294
-4.8875,0.000796671248820309
-4.88625,0.000786539777081152
-4.885,0.000788981323842096
-4.88375,0.00079345471952396
-4.8825,0.00078880654740806
-4.88125,0.000765715163231607
-4.88,0.000718749687084316
-4.87875,0.000647537246807921
-4.8775,0.00055681389436961
-4.87625,0.000455400682664215
-4.875,0.000354301043734684
-4.87375,0.00026427159798161
-4.8725,0.000193419220814924
-4.87125,0.000145438911308827
-4.87,0.00011889038458761
-4.86875,0.000107578685302074
-4.8675,0.000101898081189327
-4.86625,9.09084656065204e-05
-4.865,6.47709097061723e-05
-4.86375,1.69874320074445e-05
-4.8625,-5.41183771553098e-05
-4.86125,-0.00014500437303939
-4.86,-0.000247623459929421
-4.85875,-0.000351089078539692
-4.8575,-0.000443998511369141
-4.85625,-0.000516926418886484
-4.855,-0.00056446525152081
-4.85375,-0.000586315342122372
-4.8525,-0.000587255074528686
-4.85125,-0.000576084939462495
-4.85,-0.000563749882973576
-4.84875,-0.00056095556526761
-4.8475,-0.000575780090451987
-4.84625,-0.000611871379522787
-4.845,-0.000667654917356344
-4.84375,-0.000736673261296468
-4.8425,-0.000808952487918704
-4.84125,-0.000873152438721349
-4.84,-0.00091907710014525
-4.83875,-0.000939939047666734
-4.8375,-0.000933805298950888
-4.83625,-0.00090394170541485
-4.835,-0.000858081501913742
-4.83375,-0.000806794822768358
-4.8325,-0.000761227099283376
-4.83125,-0.000730644377559098
-4.83,-0.000720372911611696
-4.82875,-0.00073064209396842
-4.8275,-0.000756554882970646
-4.82625,-0.000789141057893084
-4.825,-0.000817292170968222
-4.82375,-0.000830220699616911
-4.8225,-0.000819886179953608
-4.82125,-0.000782771074611778
-4.82,-0.000720607599907593
-4.81875,-0.000639991052764094
-4.8175,-0.000551022352525899
-4.81625,-0.00046521280764376
-4.815,-0.00039302610014842
-4.81375,-0.000341613216883554
-4.8125,-0.000313304693548379
-4.81125,-0.000305187400877362
-4.81,-0.000309797288417655
-4.80875,-0.000316773453374914
-4.8075,-0.000315180836256102
-4.80625,-0.000296012312345432
-4.805,-0.000254243371051034
-4.80375,-0.000189937888556844
-4.8025,-0.000108230807838497
-4.80125,-1.8277873843392e-05
-4.8,6.86243975290215e-05
-4.79875,0.000141431364510416
-4.7975,0.000191750772409119
-4.79625,0.00021565763282957
-4.795,0.000214496375390868
-4.79375,0.00019454772185099
-4.7925,0.000165664662155936
-4.79125,0.000139120624405347
-4.79,0.000125094009321698
-4.78875,0.0001303965353944
-4.7875,0.000157020135217582
-4.78625,0.000201787033186646
-4.785,0.000257078101953286
-4.78375,0.000312462603866325
-4.7825,0.000356960515334086
-4.78125,0.000381497947653186
-4.78,0.00038096765679629
-4.77875,0.000355386282617103
-4.7775,0.000309925104036323
-4.77625,0.00025385921580017
-4.775,0.00019863555018078
-4.77375,0.000155415353829793
-4.7725,0.000132645755749849
-4.77125,0.000134276230625685
-4.77,0.000159019948730748
-4.76875,0.000200727795833102
-4.7675,0.000249735715397362
-4.76625,0.000294953869542159
-4.765,0.00032632172052374
-4.76375,0.000337070948893081
-4.7625,0.000325229716496662
-4.76125,0.000294040348923104
-4.76,0.000251259602084269
-4.75875,0.000207497131252554
-4.7575,0.00017388601829011
-4.75625,0.000159576160440798
-4.755,0.000169679001172577
-4.75375,0.000204165758373239
-4.7525,0.000257892190620152
-4.75125,0.000321657759513679
-4.75,0.000384094839158051
-4.74875,0.000434070633527237
-4.7475,0.000463096974995406
-4.74625,0.000467154209020483
-4.745,0.000447501722910854
-4.74375,0.000410352243691339
-4.7425,0.000365513902123118
-4.74125,0.000324242395086085
-4.74,0.000296726039941432
-4.73875,0.000289809809318771
-4.7375,0.000305533022232713
-4.73625,0.000340767107730273
-4.735,0.000387931458858178
-4.73375,0.000436613184736479
-4.7325,0.0004758233271451
-4.73125,0.000496449613224996
-4.73,0.000493315803164111
-4.72875,0.000466337201625243
-4.7275,0.000420548342502281
-4.72625,0.000365048348905531
-4.725,0.000311065404162568
-4.72375,0.000269496574114314
-4.7225,0.000248478100576654
-4.72125,0.000251603260200169
-4.72,0.000277189712724122
-4.71875,0.000318665179872041
-4.7175,0.000365931488370158
-4.71625,0.000407473809279127
-4.715,0.000432837116506112
-4.71375,0.000434909360361285
-4.7125,0.000411442733508305
-4.71125,0.000365484292016112
-4.71,0.000304685518561779
-4.70875,0.000239646904170333
-4.7075,0.000181590859894576
-4.70625,0.000139852372810591
-4.705,0.000119815006815032
-4.70375,0.000121795148714973
-4.7025,0.000141049435623911
-4.70125,0.000168814917263972
-4.7,0.000194178866341527
-4.69875,0.000206462608144009
-4.6975,0.000197616787446877
-4.69625,0.000164035948774992
-4.695,0.000107364977124983
-4.69375,3.41728380295268e-05
-4.6925,-4.54044670423945e-05
-4.69125,-0.000119810753005195
-4.69,-0.000178584221256273
-4.68875,-0.000214634104374792
-4.6875,-0.000225704812157671
-4.68625,-0.000214740918662461
-4.685,-0.000189174935284821
-4.68375,-0.000159312308222547
-4.6825,-0.000136080485752044
-4.68125,-0.000128579921973284
-4.68,-0.000142024615761052
-4.67875,-0.000176581664530945
-4.6775,-0.000227334739975072
-4.67625,-0.000285327973167956
-4.675,-0.000339490442869643
-4.67375,-0.000379085422381473
-4.6725,-0.000396129464032444
-4.67125,-0.000387165903899132
-4.67,-0.000353993542006145
-4.66875,-0.000303283349802067
-4.6675,-0.000245222845070814
-4.66625,-0.000191419117392886
-4.665,-0.000152435076917926
-4.66375,-0.000135515763629521
-4.6625,-0.00014307068589008
-4.66125,-0.000172240401400813
-4.66,-0.000215579281502916
-4.65875,-0.00026270053156926
-4.6575,-0.00030259173464543
-4.65625,-0.000326112913137712
-4.655,-0.000328051388038247
-4.65375,-0.000308232092709711
-4.6525,-0.000271508607894456
-4.65125,-0.000226724612897619
-4.65,-0.000184848490099221
-4.64875,-0.000156597083970659
-4.6475,-0.00015005085870421
-4.64625,-0.000168850655445159
-4.645,-0.000211401029821444
-4.64375,-0.000271202824925587
-4.6425,-0.000338212043203527
-4.64125,-0.000400984383790872
-4.64,-0.000449185462128843
-4.63875,-0.000475863984514228
-4.6375,-0.000478915040038118
-4.63625,-0.0004614463718473
-4.635,-0.00043106768001414
-4.63375,-0.000398275681592982
-4.6325,-0.000374201039313407
-4.63125,-0.000368154556379933
-4.63,-0.000385559317898796
-4.62875,-0.000426777531394826
-4.6275,-0.000487057077669966
-4.62625,-0.000557555197777836
-4.625,-0.00062724176317134
-4.62375,-0.000685329775104619
-4.6225,-0.000723680831602271
-4.62125,-0.000738570618984938
-4.62,-0.000731415303390995
-4.61875,-0.000708393348848649
-4.6175,-0.00067910467168854
-4.61625,-0.000654498663782087
-4.615,-0.000644442966118673
-4.61375,-0.000655484606079195
-4.6125,-0.000689364408692822
-4.61125,-0.000742609823216342
-4.61,-0.00080723669207862
-4.60875,-0.000872405711658153
-4.6075,-0.000926743008433133
-4.60625,-0.000960839532921355
-4.605,-0.000969306449170183
-4.60375,-0.000951886667592454
-4.6025,-0.000913447707741086
-4.60125,-0.00086294488799251
-4.6,-0.000811556739980633
-4.59875,-0.000770307350004298
-4.5975,-0.000747676273896012
-4.59625,-0.000747785209197804
-4.595,-0.000769586052916008
-4.59375,-0.000807172442290697
-4.5925,-0.000851111404691234
-4.59125,-0.000890556085501837
-4.59,-0.000915723938231755
-4.58875,-0.000920142800086762
-4.5875,-0.000902095489311586
-4.58625,-0.000864977193289585
-4.585,-0.000816585763716066
-4.58375,-0.000767516052692869
-4.5825,-0.000728920919180733
-4.58125,-0.000710072367344746
-4.58,-0.000716306462872724
-4.57875,-0.000747858726915282
-4.5775,-0.000799814026894805
-4.57625,-0.000863128776069245
-4.575,-0.000926529730881267
-4.57375,-0.000978940407152334
-4.5725,-0.00101188728052007
-4.57125,-0.00102127407382712
-4.57,-0.001008124279691
-4.56875,-0.000978222058206288
-4.5675,-0.000940788871968016
-4.56625,-0.000906425224812328
-4.565,-0.000884689675039769
-4.56375,-0.000881868280969734
-4.5625,-0.000899496750251903
-4.56125,-0.000933961129657085
-4.56,-0.000977207906673077
-4.55875,-0.00101840902362678
-4.5575,-0.00104628934880184
-4.55625,-0.00105162771697927
-4.555,-0.00102930612403546
-4.55375,-0.000979408415822202
-4.5525,-0.000907197284923283
-4.55125,-0.000822061133934614
-4.55,-0.000735632930334299
-4.54875,-0.000659394768634078
-4.5475,-0.000602268264713299
-4.54625,-0.000568780792216911
-4.545,-0.000558234130791441
-4.54375,-0.000565000129623318
-4.5425,-0.000579841974030456
-4.54125,-0.000592021933327576
-4.54,-0.000591778153920643
-4.53875,-0.000572571444348285
-4.5375,-0.000532532433430996
-4.53625,-0.000474823461087518
-4.535,-0.000406935514538924
-4.53375,-0.000339092519690694
-4.5325,-0.000282027211712818
-4.53125,-0.000244562143821131
-4.53,-0.000231578075220633
-4.52875,-0.000242875116659698
-4.5275,-0.000273149647891209
-4.52625,-0.000313043088352941
-4.525,-0.000351063869781239
-4.52375,-0.000376030431748397
-4.5225,-0.000379485533837893
-4.52125,-0.000357470198165374
-4.52,-0.000311258844851261
-4.51875,-0.000246987782060155
-4.5175,-0.0001743160085201
-4.51625,-0.000104348390578793
-4.515,-4.71934242387073e-05
-4.51375,-9.70828942125083e-06
-4.5125,6.00706739222492e-06
-4.51125,3.04096022467541e-06
-4.51,-1.10056038884371e-05
-4.50875,-2.56488736352248e-05
-4.5075,-2.9819168986732e-05
-4.50625,-1.43424824191582e-05
-4.505,2.60139342624591e-05
-4.50375,9.14315747751452e-05
-4.5025,0.000177042238614689
-4.50125,0.000273954085901893
-4.5,0.000371102611584328
-4.49875,0.000457614147537429
-4.4975,0.000525182829117002
-4.49625,0.00056987246030641
-4.495,0.000592918383898456
-4.49375,0.000600405715052551
-4.4925,0.000601925208361306
-4.49125,0.00060844543837836
-4.49,0.000629819030036716
-4.48875,0.000672523278892449
-4.4875,0.000738206180304465
-4.48625,0.000823323828617196
-4.485,0.000919848113588677
-4.48375,0.00101687167506736
-4.4825,0.00110284582483906
-4.48125,0.00116801822476525
-4.48,0.00120648851478964
-4.47875,0.00121737686185195
-4.4775,0.00120488226781788
-4.47625,0.00117727317856332
-4.475,0.00114500602580328
-4.47375,0.00111831967927736
-4.4725,0.00110485131085224
-4.47125,0.00110788264649274
-4.47,0.00112561484877665
-4.46875,0.00115154153992953
-4.4675,0.00117578286288013
-4.46625,0.00118715223102871
-4.465,0.00117558591702466
-4.46375,0.00113438530076277
-4.4625,0.00106171153874576
-4.46125,0.000961007262566615
-4.46,0.000840313762284951
-4.45875,0.000710635961173911
-4.4575,0.000583642090790269
-4.45625,0.000469178292627074
-4.455,0.00037321696482874
-4.45375,0.000296737845075977
-4.4525,0.000235717975698126
-4.45125,0.000182142779858923
-4.45,0.000125837401120307
-4.44875,5.68064023993062e-05
-4.4475,-3.2413784102152e-05
-4.44625,-0.000144973299037699
-4.445,-0.000278918830105654
-4.44375,-0.00042751611860982
-4.4425,-0.000580583244775008
-4.44125,-0.000726598471660723
-4.44,-0.00085517030432776
-4.43875,-0.000959275830284891
-4.4375,-0.00103670062656774
-4.43625,-0.00109039503351764
-4.435,-0.00112776659040776
-4.43375,-0.00115908001917431
-4.4325,-0.00119522677153262
-4.43125,-0.00124529412357532
-4.43,-0.00131451271095278
-4.42875,-0.00140308643684422
-4.4275,-0.00150612870398177
-4.42625,-0.00161466445681297
-4.425,-0.00171750557931804
-4.42375,-0.00180365558815992
-4.4225,-0.00186470077543295
-4.42125,-0.0018965785359859
-4.42,-0.00190032290426794
-4.41875,-0.00188171739057132
-4.4175,-0.0018499932192352
-4.41625,-0.00181580147732354
-4.415,-0.00178882634035888
-4.41375,-0.00177558370149122
-4.4125,-0.00177795824215492
-4.41125,-0.00179279841285582
-4.41,-0.00181259828894692
-4.40875,-0.00182711571626905
-4.4075,-0.00182564451042608
-4.40625,-0.0017994654875791
-4.405,-0.00174386189953539
-4.40375,-0.00165920455244573
-4.4025,-0.00155093399230845
-4.40125,-0.00142852858330504
-4.4,-0.00130365744957246
-4.39875,-0.0011878264318986
-4.3975,-0.00109000785826337
-4.39625,-0.00101483344035895
-4.395,-0.000961770291847769
-4.39375,-0.000925405169041622
-4.3925,-0.000896741021403104
-4.39125,-0.000865274288127024
-4.39,-0.000821443531515408
-4.38875,-0.000758856941458194
-4.3875,-0.000675732332661745
-4.38625,-0.000575263970024034
-4.385,-0.000464934761273666
-4.38375,-0.000354943242063262
-4.3825,-0.000256005184424101
-4.38125,-0.000176957963884118
-4.38,-0.000122745303386829
-4.37875,-9.32854635494563e-05
-4.3775,-8.34459785972884e-05
-4.37625,-8.40828622482057e-05
-4.375,-8.39486774852626e-05
-4.37375,-7.21207448599779e-05
-4.3725,-4.04024537312175e-05
-4.37125,1.49128352742457e-05
-4.37,9.23136535474864e-05
-4.36875,0.000185445786919639
-4.3675,0.000284451249649623
-4.36625,0.000378039846371912
-4.365,0.00045592202601172
-4.36375,0.00051105342631555
-4.3625,0.000541132676438052
-4.36125,0.000549028342143595
-4.36,0.000542103734691756
-4.35875,0.000530592012665632
-4.3575,0.000525309174024217
-4.35625,0.000535186089785345
-4.355,0.000565238114796038
-4.35375,0.000615469046038488
-4.3525,0.000680883074856968
-4.35125,0.000752516000538976
-4.35,0.000819285180906559
-4.34875,0.000870346874245903
-4.3475,0.000897465506132081
-4.34625,0.000896810372706955
-4.345,0.000869757056044208
-4.34375,0.000822570331198916
-4.3425,0.000765069943401653
-4.34125,0.00070851741439554
-4.34,0.000663139033551154
-4.33875,0.00063588113486911
-4.3375,0.00062896493686819
-4.33625,0.000639524941003118
-4.335,0.00066030915654801
-4.33375,0.000681268290684277
-4.3325,0.000691771115526238
-4.33125,0.000683015720355932
-4.33,0.000650058076062005
-4.32875,0.000592955170030633
-4.3275,0.000516800665847994
-4.32625,0.000430696226571887
-4.325,0.000345854303776107
-4.32375,0.000273179490903175
-4.3225,0.000220872344745637
-4.32125,0.000192663540451168
-4.32,0.000187076307873213
-4.31875,0.000197786790353895
-4.3175,0.000214945707567228
-4.31625,0.000227233974280722
-4.315,0.000224284264709035
-4.31375,0.000198921100233695
-4.3125,0.00014866194068649
-4.31125,7.6155127445677e-05
-4.31,-1.14778268185338e-05
-4.30875,-0.000104246148715533
-4.3075,-0.000191556569315719
-4.30625,-0.000264665491334384
-4.305,-0.000318699022242779
-4.30375,-0.000353742246764793
-4.3025,-0.00037482177253997
-4.30125,-0.000390869092685589
-4.3,-0.000412864675617884
-4.29875,-0.000451473850174248
-4.2975,-0.000514670488438976
-4.29625,-0.000605934083733037
-4.295,-0.000723443990351495
-4.29375,-0.000860395176087154
-4.2925,-0.00100633627835094
-4.29125,-0.00114929492638413
-4.29,-0.00127827700973791
-4.28875,-0.00138554234173435
-4.2875,-0.00146808557015696
-4.28625,-0.00152803426660194
-4.285,-0.00157198251575152
-4.28375,-0.001609430105631
-4.2825,-0.00165058798667503
-4.28125,-0.00170397784535668
-4.28,-0.00177440110794742
-4.27875,-0.00186177882816125
-4.2775,-0.00196108836681548
-4.27625,-0.00206336114270924
-4.275,-0.00215755200656127
-4.27375,-0.00223293620060621
-4.2725,-0.00228149024777117
-4.27125,-0.0022996465805845
-4.27,-0.00228901930680331
-4.26875,-0.00225602687630256
-4.2675,-0.00221054716062971
-4.26625,-0.00216383579056348
-4.265,-0.00212608179407301
-4.26375,-0.00210415373682397
-4.2625,-0.00210009829672517
-4.26125,-0.00211071814633802
-4.26,-0.00212826156122864
-4.25875,-0.00214207060220587
-4.2575,-0.00214089816238253
-4.25625,-0.00211540985831091
-4.255,-0.00206024907450757
-4.25375,-0.00197516526216198
-4.2525,-0.00186502913577499
-4.25125,-0.00173882160265186
-4.25,-0.00160779617926532
-4.24875,-0.00148312619730181
-4.2475,-0.00137353143780063
-4.24625,-0.00128346675273409
-4.245,-0.00121229476220973
-4.24375,-0.0011545687413583
-4.2425,-0.00110133003445707
-4.24125,-0.00104218767895725
-4.24,-0.000967768913034652
-4.23875,-0.000871945896950219
-4.2375,-0.000753271054772821
-4.23625,-0.000615335626367235
-4.235,-0.000466070900488808
-4.23375,-0.000316161814344606
-4.2325,-0.000176831946887183
-4.23125,-5.74272952275164e-05
-4.23,3.66227952740875e-05
-4.22875,0.000104961900918092
-4.2275,0.0001523535964955
-4.22625,0.000187659069248257
-4.225,0.000221940109384003
-4.22375,0.000266036212983774
-4.2225,0.00032816266072007
-4.22125,0.000412139089430048
-4.22,0.000516645015442729
-4.21875,0.000635568675179629
-4.2175,0.000759310529788732
-4.21625,0.000876815204948157
-4.215,0.000977967893058628
-4.21375,0.0010558119677732
-4.2125,0.00110803157552205
-4.21125,0.00113737408968444
-4.21,0.00115097982141696
-4.20875,0.00115877063687809
-4.2075,0.001171184366561
-4.20625,0.00119673487421321
-4.205,0.00124001374331661
-4.20375,0.00130062615656399
-4.2025,0.0013732292739902
-4.20125,0.00144857971622694
-4.2,0.00151538787130394
-4.19875,0.0015626693781604
-4.1975,0.00158210267480102
-4.19625,0.00156981369596551
-4.195,0.00152716931729051
-4.19375,0.00146045748230039
-4.1925,0.00137955393950851
-4.19125,0.00129581160057084
-4.19,0.00121958618432146
-4.18875,0.00115799389292401
-4.1875,0.00111346909997636
-4.18625,0.00108340701242837
-4.185,0.00106086929342025
-4.18375,0.0010361774638606
-4.1825,0.000999128530159423
-4.18125,0.000941401971392045
-4.18,0.000858581371757594
-4.17875,0.000751289707505818
-4.1775,0.00062521566317916
-4.17625,0.000490071850979276
-4.175,0.000357679978917971
-4.17375,0.000239533216056596
-4.1725,0.000144385051527576
-4.17125,7.64760168265116e-05
-4.17,3.47957728254096e-05
-4.16875,1.34470085859508e-05
-4.1675,2.97082943986321e-06
-4.16625,-7.59608942236397e-06
-4.165,-2.83005198594384e-05
-4.16375,-6.60335565320384e-05
-4.1625,-0.000123030020736434
-4.16125,-0.000196431447918427
-4.16,-0.000278945827136753
-4.15875,-0.000360453545010514
-4.1575,-0.000430274129635262
-4.15625,-0.000479615227307657
-4.155,-0.000503587537129
-4.15375,-0.000502289916094465
-4.1525,-0.000480790795432504
-4.15125,-0.000448094348668471
-4.15,-0.000415292202975343
-4.14875,-0.000393212468920925
-4.1475,-0.000390061271368666
-4.14625,-0.000409639715937656
-4.145,-0.000450556589050184
-4.14375,-0.000506557589001859
-4.1425,-0.000567867926769944
-4.14125,-0.000623309552211572
-4.14,-0.000662778701295524
-4.13875,-0.000679489314827864
-4.1375,-0.000671416628845281
-4.13625,-0.000641657967856572
-4.135,-0.000597732394460535
-4.13375,-0.000549990656782953
-4.1325,-0.000509396340388412
-4.13125,-0.000485107053008732
-4.13,-0.000482433413372375
-4.12875,-0.000501679087867406
-4.1275,-0.000538086289064954
-4.12625,-0.000582846881924175
-4.125,-0.0006249855903177
-4.12375,-0.000653768639392656
-4.1225,-0.000661093383481613
-4.12125,-0.000643250486281868
-4.12,-0.00060166003906193
-4.11875,-0.00054251137156877
-4.1175,-0.000475443348956871
-4.11625,-0.000411493217258417
-4.115,-0.00036068214463401
-4.11375,-0.000329784277662526
-4.1125,-0.000320836600288802
-4.11125,-0.000330714517688293
-4.11,-0.000351806561465825
-4.10875,-0.000373638096227579
-4.1075,-0.000385157494056266
-4.10625,-0.000377203201121798
-4.105,-0.000344532837426853
-4.10375,-0.000286918845957339
-4.1025,-0.000209139699412407
-4.10125,-0.000119957584458781
-4.1,-3.02828934812556e-05
-4.09875,4.91659487265226e-05
-4.0975,0.000110215549946659
-4.09625,0.000149021518604092
-4.095,0.0001668616003832
-4.09375,0.000169815358482761
-4.0925,0.000167432295352675
-4.09125,0.000170626220326557
-4.09,0.000189209389273748
-4.08875,0.000229660086715693
-4.0875,0.000293688566388355
-4.08625,0.000377883844700638
-4.085,0.000474419285191346
-4.08375,0.000572644946574451
-4.0825,0.000661306293577216
-4.08125,0.000730963150138509
-4.08,0.000776034356790118
-4.07875,0.000795965934835503
-4.0775,0.00079529688009843
-4.07625,0.000782660295221085
-4.075,0.000768911731495084
-4.07375,0.000764729796160012
-4.0725,0.000778231573662785
-4.07125,0.000813210053008012
-4.07,0.000868391992313356
-4.06875,0.000937786305770554
-4.0675,0.0010119858048689
-4.06625,0.00108019499771296
-4.065,0.00113261834660099
-4.06375,0.00116266546109313
-4.0625,0.00116841903230314
-4.06125,0.00115304363878632
-4.06,0.00112410520133432
-4.05875,0.00109195330860835
-4.0575,0.00106745182773288
-4.05625,0.00105953423798764
-4.055,0.00107319585760468
-4.05375,0.00110841442500715
-4.0525,0.00116017065812692
-4.05125,0.00121948116346082
-4.05,0.00127524588838899
-4.04875,0.00131660206702406
-4.0475,0.00133529219088082
-4.04625,0.00132746270211503
-4.045,0.00129446966114497
-4.04375,0.00124256628787951
-4.0425,0.00118157213265319
-4.04125,0.00112276122870767
-4.04,0.0010763843101232
-4.03875,0.00104942058588004
-4.0375,0.00104412479993082
-4.03625,0.00105765276175803
-4.035,0.001082745053578
-4.03375,0.00110929926311605
-4.0325,0.00112657134330449
-4.03125,0.00112557865922592
-4.03,0.00110112830355386
-4.02875,0.00105296819889376
-4.0275,0.000985836269448892
-4.02625,0.000908446646447428
-4.025,0.00083160653214939
-4.02375,0.000765812546481312
-4.0225,0.000718873375255764
-4.02125,0.000694166543199011
-4.02,0.000689924015236611
-4.01875,0.000699612522384921
-4.0175,0.000713269495593997
-4.01625,0.000719566481166384
-4.015,0.00070823312548393
-4.01375,0.00067229648319978
-4.0125,0.000609579631751907
-4.01125,0.000523135394881831
-4.01,0.000420582034860794
-4.00875,0.000312490659391634
-4.0075,0.000210109234508573
-4.00625,0.000122901869164937
-4.005,5.65198060173608e-05
-4.00375,1.16994978554852e-05
-4.0025,-1.57395754007999e-05
-4.00125,-3.38866640296044e-05
-4,-5.29205722098263e-05
-3.99875,-8.27873587436868e-05
-3.9975,-0.000130865047220836
-3.99625,-0.000200195076698275
-3.995,-0.000288701571546287
-3.99375,-0.000389523183707125
-3.9925,-0.00049235835990431
-3.99125,-0.000585586643371248
-3.99,-0.000658750629457809
-3.98875,-0.000704803159396927
-3.9875,-0.000721554065623109
-3.98625,-0.000712033133330174
-3.985,-0.000683790340923699
-3.98375,-0.000647305436471471
-3.9825,-0.000613768463112057
-3.98125,-0.000592658151635103
-3.98,-0.000589691745441058
-3.97875,-0.0006056465865021
-3.9775,-0.000636278566353229
-3.97625,-0.000673300933421094
-3.975,-0.000706234762700842
-3.97375,-0.000724790473108759
-3.9725,-0.000721241404478357
-3.97125,-0.000692183274956748
-3.97,-0.000639279877328895
-3.96875,-0.000568922218066786
-3.9675,-0.000490934539347087
-3.96625,-0.000416550418492523
-3.965,-0.00035602063273875
-3.96375,-0.000316393950095448
-3.9625,-0.000300026146314016
-3.96125,-0.000304143458950164
-3.96,-0.000321496134797946
-3.95875,-0.000341955027173154
-3.9575,-0.000354769722568341
-3.95625,-0.000351012858960962
-3.955,-0.000325596935456486
-3.95375,-0.000278370222347044
-3.9525,-0.000214119491592002
-3.95125,-0.000141567493179368
-3.95,-7.15627190203703e-05
-3.94875,-1.47674000119957e-05
-3.9475,2.06680604708081e-05
-3.94625,3.08667871266488e-05
-3.945,1.70058072154333e-05
-3.94375,-1.5004332372862e-05
-3.9425,-5.58372530045719e-05
-3.94125,-9.48293723450077e-05
-3.94,-0.000122410940133039
-3.93875,-0.000132302530551418
-3.9375,-0.000122917656745542
-3.93625,-9.76920266892868e-05
-3.935,-6.43629063362419e-05
-3.93375,-3.33719265521642e-05
-3.9325,-1.56527896952175e-05
-3.93125,-2.02296014170586e-05
-3.93,-5.21980401737565e-05
-3.92875,-0.000111587539527397
-3.9275,-0.000193324715133696
-3.92625,-0.000288253450191164
-3.925,-0.000385014040556603
-3.92375,-0.000472435420459941
-3.9225,-0.000541902510703624
-3.92125,-0.000589098089489015
-3.92,-0.000614726076275723
-3.91875,-0.000624149867910951
-3.9175,-0.000626085731053509
-3.91625,-0.00063058040595022
-3.915,-0.000646638517729248
-3.91375,-0.000680041282040449
-3.9125,-0.000731908132920842
-3.91125,-0.000798321148785495
-3.91,-0.00087104011058799
-3.90875,-0.000939151582220979
-3.9075,-0.000991359802439324
-3.90625,-0.00101843596480143
-3.905,-0.00101521139078688
-3.90375,-0.00098162872890738
-3.9025,-0.000922690675664712
-3.90125,-0.000847404754974376
-3.9,-0.000766928756018525
-3.89875,-0.000692226761131405
-3.8975,-0.000631725362242749
-3.89625,-0.000589546782110145
-3.895,-0.000564735533815063
-3.89375,-0.000551598467818704
-3.8925,-0.000541053792530962
-3.89125,-0.00052274566769229
-3.89,-0.000487502651934254
-3.88875,-0.000429541604688149
-3.8875,-0.00034785708001172
-3.88625,-0.000246526532233984
-3.885,-0.000133965639395885
-3.88375,-2.13121204594315e-05
-3.8825,7.98002141962683e-05
-3.88125,0.000159652889411626
-3.88,0.000212469725767203
-3.87875,0.000237562976727389
-3.8775,0.000239377457073011
-3.87625,0.000226473593526279
-3.875,0.000209643814569898
-3.87375,0.000199508407540112
-3.8725,0.000204131794015511
-3.87125,0.000227263023495167
-3.87,0.000267596117800925
-3.86875,0.000319119578814639
-3.8675,0.000372418347927806
-3.86625,0.000416701252410792
-3.865,0.000442189022593221
-3.86375,0.000442321348641196
-3.8625,0.000415230648716596
-3.86125,0.000364160349235917
-3.86,0.000296795726037645
-3.85875,0.000223658552009085
-3.8575,0.000155850503460738
-3.85625,0.000102620066112581
-3.855,6.93626585479645e-05
-3.85375,5.65443016597067e-05
-3.8525,5.972025096151e-05
-3.85125,7.0559299819195e-05
-3.85,7.86729137108048e-05
-3.84875,7.39401754393388e-05
-3.8475,4.88402010978983e-05
-3.84625,2.16927165559098e-07
-3.845,-6.99398105547817e-05
-3.84375,-0.000154818364809257
-3.8425,-0.000244114751621447
-3.84125,-0.000326132231905082
-3.84,-0.000390239836245225
-3.83875,-0.000429099705010978
-3.8375,-0.000440103038645493
-3.83625,-0.00042573603939314
-3.835,-0.000392899261606702
-3.83375,-0.000351351617477563
-3.8325,-0.000311537703327009
-3.83125,-0.000282221225400067
-3.83,-0.000268492908473553
-3.82875,-0.000270647697359196
-3.8275,-0.000284151206619973
-3.82625,-0.000300653723849762
-3.825,-0.000309857364716633
-3.82375,-0.000301891124078672
-3.8225,-0.000269655162180651
-3.82125,-0.000210535276043035
-3.82,-0.000127097950242802
-3.81875,-2.67005675651935e-05
-3.8175,7.98463252170534e-05
-3.81625,0.000180339646081572
-3.815,0.00026360422724787
-3.81375,0.000321732348017404
-3.8125,0.000351589587652934
-3.81125,0.000355263034522409
-3.81,0.000339416706661771
-3.80875,0.000313701583892633
-3.8075,0.000288502919033208
-3.80625,0.000272500501926185
-3.805,0.000270654457273075
-3.80375,0.000283109298235055
-3.8025,0.000305189726872283
-3.80125,0.000328402389540749
-3.8,0.000342247508878625
-3.79875,0.000336535241428595
-3.7975,0.000303718926120688
-3.79625,0.000240666149061242
-3.795,0.000149445716909495
-3.79375,3.70057777760708e-05
-3.7925,-8.61574285784821e-05
-3.79125,-0.000208105150434415
-3.79,-0.000317926083303622
-3.78875,-0.000407980694949378
-3.7875,-0.000475356731694424
-3.78625,-0.000522252086230827
-3.785,-0.000555303963433205
-3.78375,-0.000584033339386867
-3.7825,-0.000618662555531604
-3.78125,-0.000667729029848681
-3.78,-0.000736065410586194
-3.77875,-0.00082364466038487
-3.7775,-0.000925514878318401
-3.77625,-0.00103278802826428
-3.775,-0.00113449424416379
-3.77375,-0.00121996058140174
-3.7725,-0.0012811751742002
-3.77125,-0.00131453205947339
-3.77,-0.00132155907522059
-3.76875,-0.00130855797546204
-3.7675,-0.00128529250336385
-3.76625,-0.00126295059786184
-3.765,-0.00125174536373557
-3.76375,-0.00125869711613577
-3.7625,-0.00128614980345509
-3.76125,-0.00133134391172437
-3.76,-0.00138707759633715
-3.75875,-0.00144330655849382
-3.7575,-0.00148940041738605
-3.75625,-0.00151658074544753
-3.755,-0.00151992793024642
-3.75375,-0.00149946453733022
-3.7525,-0.0014601445609205
-3.75125,-0.00141083844034749
-3.75,-0.00136251250948033
-3.74875,-0.001325908568532
-3.7475,-0.00130921094184952
-3.74625,-0.00131627806510164
-3.745,-0.0013458566083197
-3.74375,-0.00139189960283458
-3.7425,-0.00144488800926647
-3.74125,-0.00149392023633259
-3.74,-0.00152915842248862
-3.73875,-0.00154404033161147
-3.7375,-0.0015366943333432
-3.73625,-0.00151027658750994
-3.735,-0.00147225373231855
-3.73375,-0.00143280523699209
-3.7325,-0.00140260940176932
-3.73125,-0.00139044271777779
-3.73,-0.00140116856978235
-3.72875,-0.00143461581261273
-3.7275,-0.00148556823115731
-3.72625,-0.00154481957425008
-3.725,-0.00160109266370371
-3.72375,-0.00164346585803455
-3.7225,-0.0016637533204458
-3.72125,-0.00165822959644136
-3.72,-0.00162831076336735
-3.71875,-0.00158013866715642
-3.7175,-0.00152321844593336
-3.71625,-0.00146834387090313
-3.715,-0.0014251794541743
-3.71375,-0.00140004438311438
-3.7125,-0.00139445458798384
-3.71125,-0.00140474749850246
-3.71,-0.00142281874702171
-3.70875,-0.00143780879840326
-3.7075,-0.00143843298595601
-3.70625,-0.00141545230417322
-3.705,-0.0013636591440794
-3.70375,-0.00128289832711427
-3.7025,-0.00117797953172653
-3.70125,-0.00105759196934222
-3.7,-0.000932430047530043
-3.69875,-0.000812842593597017
-3.6975,-0.000706500916601098
-3.69625,-0.000616668585917968
-3.695,-0.000541491735499327
-3.69375,-0.000474425930634286
-3.6925,-0.000405685370191543
-3.69125,-0.000324455516009611
-3.69,-0.000221427888969759
-3.68875,-9.10421336418578e-05
-3.6875,6.71286750354947e-05
-3.68625,0.000248111033640197
-3.685,0.000442337642471533
-3.68375,0.000637342083762694
-3.6825,0.000820072245149649
-3.68125,0.000979387241970253
-3.68,0.00110815631062331
-3.67875,0.0012044557812864
-3.6775,0.00127164143030719
-3.67625,0.00131734059364645
-3.675,0.00135156677557691
-3.67375,0.00138431843722204
-3.6725,0.00142322083994253
-3.67125,0.00147181925580801
-3.67,0.00152890350007745
-3.66875,0.00158891147933335
-3.6675,0.00164326356679675
-3.66625,0.00168239966660173
-3.665,0.00169815426914794
-3.66375,0.00168592481099504
-3.6625,0.00164607633235453
-3.66125,0.0015842576383604
-3.66,0.00151059868167284
-3.65875,0.00143794932323207
-3.6575,0.00137946610704457
-3.65625,0.00134605429041034
-3.655,0.00134429924584557
-3.65375,0.00137537573290185
-3.6525,0.00143508558914649
-3.65125,0.00151491664022577
-3.65,0.00160391565184272
-3.64875,0.00169106310011095
-3.6475,0.00176765290700861
-3.64625,0.00182908964398333
-3.645,0.0018756776781718
-3.64375,0.00191227914738457
-3.6425,0.00194694785236644
-3.64125,0.001988791548398
-3.64,0.00204550070630182
-3.63875,0.00212115977580298
-3.6375,0.00221490810325796
-3.63625,0.00232071404076082
-3.635,0.00242821735857252
-3.63375,0.00252445274775874
-3.6325,0.00259618300440161
-3.63125,0.00263240405026008
-3.63,0.00262643684668834
-3.62875,0.00257709911047584
-3.6275,0.0024887329816386
-3.62625,0.00237013504505527
-3.625,0.00223259767747662
-3.62375,0.00208743419147101
-3.6225,0.00194355889921208
-3.62125,0.00180573872072017
-3.62,0.00167389758193429
-3.61875,0.00154351653953028
-3.6175,0.00140697368451356
-3.61625,0.00125558812663215
-3.615,0.00108199848630841
-3.61375,0.000882329747781454
-3.6125,0.000657592161658197
-3.61125,0.000413988831921508
-3.61,0.000162103958177109
-3.60875,-8.48646245657505e-05
-3.6075,-0.000313518042970107
-3.60625,-0.000512803532306621
-3.605,-0.000676060046572928
-3.60375,-0.000802074269764273
-3.6025,-0.000894999398918621
-3.60125,-0.000963248265845383
-3.6,-0.00101757322997423
-3.59875,-0.00106865057128263
-3.5975,-0.00112467031781043
-3.59625,-0.0011895204637416
-3.595,-0.00126199041265731
-3.59375,-0.00133611502572383
-3.5925,-0.00140255027418633
-3.59125,-0.00145072766212833
-3.59,-0.00147135277067622
-3.58875,-0.00145863755270019
-3.5875,-0.00141170145287755
-3.58625,-0.00133487387643572
-3.585,-0.00123693602816697
-3.58375,-0.00112948278093313
-3.5825,-0.00102466931784791
-3.58125,-0.000932773037771433
-3.58,-0.000860150149095337
-3.57875,-0.00080809369112754
-3.5775,-0.00077282068110082
-3.57625,-0.000746545091200831
-3.575,-0.000719427979996721
-3.57375,-0.000682033065764968
-3.5725,-0.000627720324911739
-3.57125,-0.000554364878769737
-3.57,-0.000465019641462524
-3.56875,-0.000367473896622219
-3.5675,-0.000272857467402533
-3.56625,-0.000193521019408671
-3.565,-0.000140558882129561
-3.56375,-0.000121520883598535
-3.5625,-0.000138874484560289
-3.56125,-0.000189548560726186
-3.56,-0.000265596316773629
-3.55875,-0.000355827214538377
-3.5575,-0.000448120087367107
-3.55625,-0.000531935975861924
-3.555,-0.000600412217126385
-3.55375,-0.000651539455380435
-3.5525,-0.00068824327948383
-3.55125,-0.000717452891690055
-3.55,-0.000748350647880725
-3.54875,-0.000790104594535746
-3.5475,-0.000849566248896709
-3.54625,-0.000929506358019987
-3.545,-0.00102780877529068
-3.54375,-0.00113775263343761
-3.5425,-0.00124929218888234
-3.54125,-0.00135110744976232
-3.54,-0.00143302324908958
-3.53875,-0.00148821366690377
-3.5375,-0.00151463134505689
-3.53625,-0.00151537451321
-3.535,-0.00149800424924293
-3.53375,-0.00147297589712667
-3.5325,-0.00145144027971712
-3.53125,-0.00144283733033467
-3.53,-0.00145285333389269
-3.52875,-0.00148224268646575
-3.5275,-0.00152674201546833
-3.52625,-0.00157804241939472
-3.525,-0.00162563157611106
-3.52375,-0.00165916563418625
-3.5225,-0.00167083514204657
-3.52125,-0.00165712311927104
-3.52,-0.00161955649247348
-3.51875,-0.00156437530367141
-3.5175,-0.00150125073533306
-3.51625,-0.00144127482068289
-3.515,-0.0013945825617662
-3.51375,-0.0013681440180974
-3.5125,-0.00136427790205994
-3.51125,-0.00138021246453952
-3.51,-0.00140873151804961
-3.50875,-0.00143976033663293
-3.5075,-0.00146261216261049
-3.50625,-0.00146842548832534
-3.505,-0.00145218398910917
-3.50375,-0.00141382491435785
-3.5025,-0.00135825687499002
-3.50125,-0.00129436856337465
-3.5,-0.00123322289831904
-3.49875,-0.00118574028569782
-3.4975,-0.00116035598756512
-3.49625,-0.00116122789276741
-3.495,-0.00118741747014596
-3.49375,-0.00123317471998648
-3.4925,-0.00128923435388038
-3.49125,-0.00134489037208117
-3.49,-0.00139043848594667
-3.48875,-0.00141939751534584
-3.4875,-0.00142994916551196
-3.48625,-0.00142531283263904
-3.485,-0.00141307170606864
-3.48375,-0.00140361504473093
-3.4825,-0.00140794995402601
-3.48125,-0.00143530098444135
-3.48,-0.001491064836918
-3.47875,-0.00157561996180353
-3.4775,-0.00168422158713756
-3.47625,-0.00180795308611638
-3.475,-0.00193555072564757
-3.47375,-0.00205576642117799
-3.4725,-0.00215973655309204
-3.47125,-0.00224275591659567
-3.47,-0.00230505495399565
-3.46875,-0.00235149929868398
-3.4675,-0.00239033768112566
-3.46625,-0.00243121787025524
-3.465,-0.00248283019465548
-3.46375,-0.00255071638685628
-3.4625,-0.00263579592838623
-3.46125,-0.00273393691896233
-3.46,-0.00283661193018312
-3.45875,-0.00293249683145578
-3.4575,-0.00300973423500725
-3.45625,-0.00305838814333528
-3.455,-0.00307247572025758
-3.45375,-0.00305107810895794
-3.4525,-0.00299835115912183
-3.45125,-0.00292251988229485
-3.45,-0.00283405432383077
-3.44875,-0.00274333440001164
-3.4475,-0.00265829296421727
-3.44625,-0.00258261687551165
-3.445,-0.00251492985971937
-3.44375,-0.002449086349287
-3.4425,-0.00237548204441516
-3.44125,-0.00228314987880109
-3.44,-0.00216223335708567
-3.43875,-0.00200624649863966
-3.4375,-0.00181355188588473
-3.43625,-0.00158776384743617
-3.435,-0.00133708664980388
-3.43375,-0.00107275124073405
-3.4325,-0.000806807521832429
-3.43125,-0.000549698242678868
-3.43,-0.000308190996874484
-3.42875,-8.41750792482039e-05
-3.4275,0.00012544316470214
-3.42625,0.000327775950136599
-3.425,0.000532107779272399
-3.42375,0.000747512175045728
-3.4225,0.000980476505303689
-3.42125,0.00123314570657484
-3.42,0.0015025872169647
-3.41875,0.00178114988521508
-3.4175,0.00205777987391359
-3.41625,0.00232006551866382
-3.415,0.00255664727237019
-3.41375,0.00275945314811786
-3.4125,0.00292520672792398
-3.41125,0.00305588164395018
-3.41,0.00315806496730166
-3.40875,0.00324137419203138
-3.4075,0.00331620675853619
-3.40625,0.00339129496598935
-3.405,0.00347167955741048
-3.40375,0.00355759829169195
-3.4025,0.00364446668925238
-3.40125,0.0037238679240969
-3.4,0.00378535841522958
-3.39875,0.00381878606751593
-3.3975,0.00381663330643748
-3.39625,0.00377580353117594
-3.395,0.00369842537372464
-3.39375,0.0035915453732107
-3.3925,0.00346580402825487
-3.39125,0.00333332745376354
-3.39,0.00320524475837131
-3.38875,0.0030894252600469
-3.3875,0.00298900597263643
-3.38625,0.00290199991573142
-3.385,0.0028219690277668
-3.38375,0.00273959178884406
-3.3825,0.00264486582952481
-3.38125,0.00252951984068049
-3.38,0.00238905894719902
-3.37875,0.00222393721868837
-3.3775,0.00203962624973625
-3.37625,0.00184561439002101
-3.375,0.00165352847869305
-3.37375,0.00147472481527309
-3.3725,0.00131789418281362
-3.37125,0.00118729106490859
-3.37,0.00108198897025066
-3.36875,0.000996235098324251
-3.3675,0.000920768884408068
-3.36625,0.000844876760246131
-3.365,0.000758815093105865
-3.36375,0.000656052877391464
-3.3625,0.000534772298965677
-3.36125,0.000398296985755592
-3.36,0.000254412677240607
-3.35875,0.000113732913954896
-3.3575,-1.25987944243509e-05
-3.35625,-0.000115382888100105
-3.355,-0.000189389862264484
-3.35375,-0.000234441475625582
-3.3525,-0.000255378391861003
-3.35125,-0.000261009265478429
-3.35,-0.00026224563271089
-3.34875,-0.000269734547862494
-3.3475,-0.000291484011957114
-3.34625,-0.000331067590102661
-3.345,-0.000386835492956933
-3.34375,-0.000452258949819722
-3.3425,-0.000517305889377869
-3.34125,-0.00057060391185783
-3.34,-0.00060196468257954
-3.33875,-0.000604662053296904
-3.3375,-0.00057689085173633
-3.33625,-0.00052212404426106
-3.335,-0.000448394253682356
-3.33375,-0.000366675397061012
-3.3325,-0.000288629196180412
-3.33125,-0.000224149561517929
-3.33,-0.000179288005008093
-3.32875,-0.000155069055106142
-3.3275,-0.000147423307741847
-3.32625,-0.000148197227390437
-3.325,-0.000147042591273079
-3.32375,-0.000133835621798829
-3.3225,-0.000101078465433295
-3.32125,-4.56706682996609e-05
-3.32,3.03516234859534e-05
-3.31875,0.000120180064502857
-3.3175,0.000213564767834752
-3.31625,0.000298883594471866
-3.315,0.000365582944176434
-3.31375,0.000406441233182972
-3.3125,0.000419091082357779
-3.31125,0.000406467487183679
-3.31,0.000376144500351096
-3.30875,0.000338710282555872
-3.3075,0.000305467012786041
-3.30625,0.000285937015098481
-3.305,0.000285797628423724
-3.30375,0.000305749134624636
-3.3025,0.000341496038803642
-3.30125,0.000384756021864708
-3.3,0.000425096862545818
-3.29875,0.000452289619433287
-3.2975,0.000458679952671148
-3.29625,0.000440987685087966
-3.295,0.000401106027281503
-3.29375,0.000345774150108836
-3.2925,0.000285224946511088
-3.29125,0.000231049216911444
-3.29,0.000193696809316105
-3.28875,0.000180217859948698
-3.2875,0.000192817263329911
-3.28625,0.000228507924097751
-3.285,0.000279838719640242
-3.28375,0.000336521183526576
-3.2825,0.000387689873593388
-3.28125,0.000424363887379924
-3.28,0.000441526635022594
-3.27875,0.000439313223625456
-3.2775,0.000423073745300997
-3.27625,0.000402348805665385
-3.275,0.000388951623336997
-3.27375,0.000394506705977585
-3.2725,0.000427995422836295
-3.27125,0.000493925715700777
-3.27,0.000591533057920187
-3.26875,0.00071508735888101
-3.2675,0.000855170475977983
-3.26625,0.0010006980842127
-3.265,0.00114132009189662
-3.26375,0.00126965238003003
-3.2625,0.0013827775235972
-3.26125,0.00148268264957693
-3.26,0.00157559653454982
-3.25875,0.00167037532392442
-3.2575,0.00177622569720704
-3.25625,0.00190025171694717
-3.255,0.00204545019340054
-3.25375,0.00220965531413416
-3.2525,0.00238560582760671
-3.25125,0.00256204196151016
-3.25,0.00272562664965375
-3.24875,0.00286337675807419
-3.2475,0.00296510682880548
-3.24625,0.00302529593039761
-3.245,0.00304394671076948
-3.24375,0.00302630658423761
-3.2425,0.00298154975746208
-3.24125,0.00292065814050206
-3.24,0.00285391753693023
-3.23875,0.00278862946597625
-3.2375,0.00272761418979453
-3.23625,0.00266879857472412
-3.235,0.00260587388871486
-3.23375,0.00252985360259421
-3.2325,0.00243126919405572
-3.23125,0.00230257279979265
-3.23,0.0021401635753902
-3.22875,0.00194552612981202
-3.2275,0.00172525001300252
-3.22625,0.00148996992980309
-3.225,0.00125242558385963
-3.22375,0.00102499539269161
-3.2225,0.000817257193542568
-3.22125,0.000634192728072807
-3.22,0.00047543836424534
-3.21875,0.000335649904298656
-3.2175,0.00020584012901951
-3.21625,7.54590137903901e-05
-3.215,-6.51516023924765e-05
-3.21375,-0.000222478543456123
-3.2125,-0.000398297716644303
-3.21125,-0.000589207273755633
-3.21,-0.000787270884023525
-3.20875,-0.00098162213313592
-3.2075,-0.00116074610510774
-3.20625,-0.00131496013419009
-3.205,-0.00143847278794241
-3.20375,-0.0015305147624315
-3.2025,-0.00159535762933697
-3.20125,-0.00164130416807072
-3.2,-0.00167884993672687
-3.19875,-0.00171832661385041
-3.1975,-0.00176752244776692
-3.19625,-0.00182986843079105
-3.195,-0.00190362122260448
-3.19375,-0.0019821742069882
-3.1925,-0.0020554001395082
-3.19125,-0.00211178880947796
-3.19,-0.00214096304331606
-3.18875,-0.00213597097320006
-3.1875,-0.00209477717646768
-3.18625,-0.00202065817100827
-3.185,-0.00192151690085926
-3.18375,-0.00180828611657835
-3.1825,-0.00169268303686363
-3.18125,-0.0015847472682635
-3.18,-0.00149074641157736
-3.17875,-0.00141196261653159
-3.1775,-0.00134459303232658
-3.17625,-0.00128072777961558
-3.175,-0.0012102128454852
-3.17375,-0.00112305341163796
-3.1725,-0.00101181462852533
-3.17125,-0.000873407228679577
-3.17,-0.000709850521986708
-3.16875,-0.000527934918299427
-3.1675,-0.000337916793902774
-3.16625,-0.000151471358896088
-3.165,2.07296298737076e-05
-3.16375,0.000171265814576906
-3.1625,0.000297476534263957
-3.16125,0.00040189516305615
-3.16,0.00049157137471546
-3.15875,0.000576433070924046
-3.1575,0.000666979105379331
-3.15625,0.000771789004234607
-3.155,0.000895473184231952
-3.15375,0.00103756388316285
-3.1525,0.00119252117146652
-3.15125,0.00135076442162782
-3.15,0.00150052946480042
-3.14875,0.00163024359389564
-3.1475,0.00173092529141683
-3.14625,0.00179802090848969
-3.145,0.00183224775990727
-3.14375,0.00183931276573836
-3.1425,0.0018286028295121
-3.14125,0.00181108173744344
-3.14,0.00179680708586774
-3.13875,0.00179266532032962
-3.1375,0.00180089872747345
-3.13625,0.00181871665175467
-3.135,0.00183897529025379
-3.13375,0.00185175654124208
-3.1325,0.00184658569846135
-3.13125,0.00181485968374059
-3.13,0.0017519056093657
-3.12875,0.00165815984393761
-3.1275,0.00153923587278895
-3.12625,0.00140491615437333
-3.125,0.00126725876405347
-3.12375,0.00113816329030121
-3.1225,0.00102694155246096
-3.12125,0.000938509371355112
-3.12,0.00087260891788626
-3.11875,0.000824138759660527
-3.1175,0.000784456235281547
-3.11625,0.000743423984424527
-3.115,0.00069183237412459
-3.11375,0.000623647955391716
-3.1125,0.000537523341597894
-3.11125,0.000437235985338647
-3.11,0.000331018648994548
-3.10875,0.000229930330146456
-3.1075,0.000145551772160896
-3.10625,8.74848920988371e-05
-3.105,6.12787228016222e-05
-3.10375,6.72891503552227e-05
-3.1025,0.000100656772106094
-3.10125,0.000152319024603619
-3.1,0.000210856739873259
-3.09875,0.000264864649612689
-3.0975,0.000305350222611141
-3.09625,0.000327571039254162
-3.095,0.000331879096068136
-3.09375,0.000323442244055119
-3.0925,0.000310941290274213
-3.09125,0.000304478599025462
-3.09,0.000313110978222708
-3.08875,0.000342604339946219
-3.0875,0.000393984770213567
-3.08625,0.000463179491625757
-3.085,0.000541731693951297
-3.08375,0.000618417164625794
-3.0825,0.000681499057038904
-3.08125,0.000721188901509373
-3.08,0.000731730148461328
-3.07875,0.000712592654927983
-3.0775,0.000668547797795315
-3.07625,0.000608662433154036
-3.075,0.000544404334965426
-3.07375,0.000487203275278186
-3.0725,0.000446012210689807
-3.07125,0.000425484722729658
-3.07,0.000425179565488196
-3.06875,0.000439871219235515
-3.0675,0.000460832588058178
-3.06625,0.000477863143557052
-3.065,0.000481695931320975
-3.06375,0.0004662348143584
-3.0625,0.000430057430955649
-3.06125,0.000376850752442686
-3.06,0.000314741881463634
-3.05875,0.000254672973425397
-3.0575,0.000208103453964569
-3.05625,0.000184516746915911
-3.055,0.000189352422739002
-3.05375,0.000222870666683477
-3.0525,0.000280133676120106
-3.05125,0.000352020288894998
-3.05,0.000427074100040571
-3.04875,0.000493875347351732
-3.0475,0.000543442532426285
-3.04625,0.000571075745097987
-3.045,0.000577211473431021
-3.04375,0.000567159560193131
-3.0425,0.000549819325912776
-3.04125,0.000535606105594446
-3.04,0.000533993636363705
-3.03875,0.000551263185072408
-3.0375,0.000589032663630471
-3.03625,0.000643863206678443
-3.035,0.000707932741033721
-3.03375,0.000770609057018448
-3.0325,0.000820662569516059
-3.03125,0.000848690641713582
-3.03,0.000849172818646376
-3.02875,0.00082164646198861
-3.0275,0.000770771816981872
-3.02625,0.000705324578628681
-3.025,0.000636310691245501
-3.02375,0.000574550542159904
-3.0225,0.000528277083723351
-3.02125,0.000501359253757627
-3.02,0.000492554382946315
-3.01875,0.000495862429281874
-3.0175,0.000501844647146373
-3.01625,0.000499679218000022
-3.015,0.000479588511632066
-3.01375,0.000435090550723332
-3.0125,0.000364510017730779
-3.01125,0.00027141516209031
-3.01,0.000163943759451983
-3.00875,5.31687904102867e-05
-3.0075,-4.92107281609361e-05
-3.00625,-0.000133374525575581
-3.005,-0.000193458624564265
-3.00375,-0.000228697209944364
-3.0025,-0.000243444727596455
-3.00125,-0.000246164804669298
-3,-0.000247588843195652
-2.99875,-0.000258355572100043
-2.9975,-0.000286625602543529
-2.99625,-0.000336258261716449
-2.995,-0.000405980580253955
-2.99375,-0.000489678628085855
-2.9925,-0.000577714786813572
-2.99125,-0.000659036794830812
-2.99,-0.000723665639205915
-2.98875,-0.000764963395056117
-2.9875,-0.000781105036771508
-2.98625,-0.000775460328700825
-2.985,-0.000755901454406106
-2.98375,-0.000733206365747627
-2.9825,-0.000718817775427669
-2.98125,-0.00072238635965509
-2.98,-0.00074968086761066
-2.97875,-0.000801378102616106
-2.9775,-0.000872965342255857
-2.97625,-0.00095571930705552
-2.975,-0.00103857225011197
-2.97375,-0.00111052533020152
-2.9725,-0.001163068500572
-2.97125,-0.00119199153120358
-2.97,-0.00119817291267797
-2.96875,-0.00118726449635204
-2.9675,-0.00116840379498885
-2.96625,-0.00115218009895114
-2.965,-0.00114822105344444
-2.96375,-0.00116294875716007
-2.9625,-0.00119807079718569
-2.96125,-0.00125014061062157
-2.96,-0.0013112259577989
-2.95875,-0.00137053732781942
-2.9575,-0.00141673181438014
-2.95625,-0.00144041212787959
-2.955,-0.00143619687722854
-2.95375,-0.00140385434140026
-2.9525,-0.00134831647714733
-2.95125,-0.00127865878198262
-2.95,-0.00120624656922571
-2.94875,-0.00114235724103871
-2.9475,-0.00109577294423003
-2.94625,-0.00107093374990693
-2.945,-0.0010670855188589
-2.94375,-0.00107855557694524
-2.9425,-0.00109605969708883
-2.94125,-0.00110880463240031
-2.94,-0.00110697225962106
-2.93875,-0.00108398592131113
-2.9375,-0.00103798210928729
-2.93625,-0.000972192985017663
-2.935,-0.000894256886624779
-2.93375,-0.000814630555446146
-2.9325,-0.000744366309019162
-2.93125,-0.000692683189485169
-2.93,-0.000664913117546814
-2.92875,-0.000661333365942404
-2.9275,-0.000677116676363704
-2.92625,-0.00070336013744452
-2.925,-0.000728995942499183
-2.92375,-0.000743232190213444
-2.9225,-0.000737971908026567
-2.92125,-0.000709593729628829
-2.92,-0.000659692126236762
-2.91875,-0.000594710259816706
-2.9175,-0.000524607508409854
-2.91625,-0.000460791035942906
-2.915,-0.000413676681478647
-2.91375,-0.000390424671022216
-2.9125,-0.000393412462861194
-2.91125,-0.000419778150385171
-2.91,-0.00046207295579536
-2.90875,-0.000509873356998267
-2.9075,-0.000552067522393307
-2.90625,-0.00057933734910842
-2.905,-0.000586216286213254
-2.90375,-0.000572220119894087
-2.9025,-0.000541870865241883
-2.90125,-0.000503699549624691
-2.9,-0.000468426409478957
-2.89875,-0.000446625039163016
-2.8975,-0.000446360092450619
-2.89625,-0.000471381988011612
-2.895,-0.000520306086493042
-2.89375,-0.000586904904321467
-2.8925,-0.000661415700786276
-2.89125,-0.000732630947830328
-2.89,-0.000790365263893236
-2.88875,-0.000827707986906605
-2.8875,-0.00084248971417782
-2.88625,-0.000837668171724277
-2.885,-0.000820646539455229
-2.88375,-0.000801692834339076
-2.8825,-0.000791719406429674
-2.88125,-0.000799848758233599
-2.88,-0.000831345010767011
-2.87875,-0.000886422051547928
-2.8775,-0.000960161234331919
-2.87625,-0.00104350359519718
-2.875,-0.00112512680601488
-2.87375,-0.00119386530482077
-2.8725,-0.00124113132831841
-2.87125,-0.00126272176223288
-2.87,-0.00125959902090665
-2.86875,-0.00123756492513962
-2.8675,-0.00120596026780551
-2.86625,-0.00117561695849275
-2.865,-0.0011564297035337
-2.86375,-0.00115509672775031
-2.8625,-0.00117359665225685
-2.86125,-0.00120873760147693
-2.86,-0.00125281596820153
-2.85875,-0.00129523266470636
-2.8575,-0.00132478086886542
-2.85625,-0.00133212881568315
-2.855,-0.0013118794051225
-2.85375,-0.00126370146062811
-2.8525,-0.00119234889729439
-2.85125,-0.00110665245709883
-2.85,-0.00101768416590536
-2.84875,-0.000936403297469472
-2.8475,-0.000871276309714397
-2.84625,-0.000826458170373063
-2.845,-0.000800966019413723
-2.84375,-0.000788974742358881
-2.8425,-0.000781134937154461
-2.84125,-0.000766676710433706
-2.84,-0.00073588811052595
-2.83875,-0.00068237421370143
-2.8375,-0.000604524690183117
-2.83625,-0.000505896579620726
-2.835,-0.0003945277697854
-2.83375,-0.000281352360349714
-2.8325,-0.000177978334380001
-2.83125,-9.42528781764152e-05
-2.83,-3.61923718062434e-05
-2.82875,-4.78627519138628e-06
-2.8275,4.09313104106882e-06
-2.82625,-1.28814293034705e-06
-2.825,-1.03814728558004e-05
-2.82375,-1.27460737293025e-05
-2.8225,-4.35715274613861e-07
-2.82125,3.02270736477596e-05
-2.82,7.78952540464918e-05
-2.81875,0.000136537689773332
-2.8175,0.000196742869673084
-2.81625,0.000247761235561754
-2.815,0.000279922662047974
-2.81375,0.000286884079063589
-2.8125,0.000267144580676963
-2.81125,0.000224493422515035
-2.81,0.000167349508692156
-2.80875,0.000107136564818951
-2.8075,5.59731928437742e-05
-2.80625,2.4153430870937e-05
-2.805,1.80408832745033e-05
-2.80375,3.88873209765927e-05
-2.8025,8.27635114941679e-05
-2.80125,0.000141521849519204
-2.8,0.000204596438358719
-2.79875,0.00026133739934473
-2.7975,0.000303389327152538
-2.79625,0.000326523933545552
-2.795,0.00033149022476659
-2.79375,0.000323747906911061
-2.7925,0.000312180974525115
-2.79125,0.000307025022795613
-2.79,0.000317415109328306
-2.78875,0.00034914569774865
-2.7875,0.00040321678150925
-2.78625,0.000475463759920708
-2.785,0.000557259216113914
-2.78375,0.000637117594826175
-2.7825,0.000702942745837321
-2.78125,0.000744490943764259
-2.78,0.000755468903235587
-2.77875,0.000734754759339674
-2.7775,0.000686507896559624
-2.77625,0.000619200987902011
-2.775,0.000543761829654618
-2.77375,0.000471163170540456
-2.7725,0.000409999625193274
-2.77125,0.000364667325882421
-2.77,0.000334562501912321
-2.76875,0.000314383869794115
-2.7675,0.00029540714137539
-2.76625,0.000267505214579259
-2.765,0.000221549640698057
-2.76375,0.000151647639729562
-2.7625,5.66494594501214e-05
-2.76125,-5.94112950468045e-05
-2.76,-0.000187985014231066
-2.75875,-0.000317632251405794
-2.7575,-0.000436324412148821
-2.75625,-0.000533941721368201
-2.755,-0.000604348131913202
-2.75375,-0.000646536568759186
-2.7525,-0.000664660698778745
-2.75125,-0.000667038537877604
-2.75,-0.000664327825047024
-2.74875,-0.00066717932186655
-2.7475,-0.000683856422407009
-2.74625,-0.000718406295071971
-2.745,-0.000769814780973374
-2.74375,-0.000832277219553314
-2.7425,-0.000896487766716055
-2.74125,-0.000951714040748167
-2.74,-0.000988251973402668
-2.73875,-0.000999671880822104
-2.7375,-0.000984283048004664
-2.73625,-0.000945518607511964
-2.735,-0.000891251140651216
-2.73375,-0.000832206910936028
-2.7325,-0.000779737512720935
-2.73125,-0.000743374743511992
-2.73,-0.000728748613070983
-2.72875,-0.000736382147871068
-2.7275,-0.000761600125477355
-2.72625,-0.000795520146458787
-2.725,-0.000826936979504022
-2.72375,-0.000844757962993567
-2.7225,-0.000840446438000571
-2.72125,-0.00080985593236748
-2.72,-0.000754039427822273
-2.71875,-0.000678949267538121
-2.7175,-0.000594158406679987
-2.71625,-0.000510827982703418
-2.715,-0.000439284888917605
-2.71375,-0.000386754628286431
-2.7125,-0.000355813849655459
-2.71125,-0.000343900556800255
-2.71,-0.00034392708836842
-2.70875,-0.000345854419117165
-2.7075,-0.000338950638705062
-2.70625,-0.00031426079502239
-2.705,-0.000266668386566545
-2.70375,-0.000196038886138199
-2.7025,-0.000107256292779293
-2.70125,-9.23273523766777e-06
-2.7,8.69122436014852e-05
-2.69875,0.000170197067010273
-2.6975,0.000232158518989642
-2.69625,0.000268680004183349
-2.695,0.000280832854208819
-2.69375,0.000274595325009992
-2.6925,0.000259544456863087
-2.69125,0.000246754930353311
-2.69,0.000246314721473424
-2.68875,0.000265052150284746
-2.6875,0.000305050068145611
-2.68625,0.000363245159948974
-2.685,0.000432100564636635
-2.68375,0.000501183565933705
-2.6825,0.000559390427160172
-2.68125,0.000597393264617383
-2.68,0.000609728087067035
-2.67875,0.000596007804435489
-2.6775,0.000561021346088427
-2.67625,0.000513751483032617
-2.675,0.000465502636500306
-2.67375,0.000427481060814655
-2.6725,0.000408367675432413
-2.67125,0.000412497545791072
-2.67,0.000439060021689506
-2.66875,0.000482403462452267
-2.6675,0.00053331352631977
-2.66625,0.000581040481789398
-2.665,0.00061571321022684
-2.66375,0.000630595147405607
-2.6625,0.000623616269876105
-2.66125,0.000597841386055828
-2.66,0.000560830420885125
-2.65875,0.000523035872823597
-2.6575,0.000495519274876936
-2.65625,0.000487463613223968
-2.655,0.000504104858844381
-2.65375,0.000545593859080499
-2.6525,0.000606975025106846
-2.65125,0.000679195269375611
-2.65,0.000750940386029388
-2.64875,0.000810990890470089
-2.6475,0.000850608148985974
-2.64625,0.000865364470225679
-2.645,0.000855983416505163
-2.64375,0.00082805702519026
-2.6425,0.000790737006541779
-2.64125,0.00075463419723849
-2.64,0.000729334862055024
-2.63875,0.000721128014533411
-2.6375,0.000731521530381937
-2.63625,0.000756848707144428
-2.635,0.000788955525732173
-2.63375,0.000816798077110384
-2.6325,0.000828687022757342
-2.63125,0.000814750311877074
-2.63,0.000769033206480974
-2.62875,0.000690721016250501
-2.6275,0.000584247197411908
-2.62625,0.000458320592723011
-2.625,0.00032406298462704
-2.62375,0.00019259762209403
-2.6225,7.26276384719722e-05
-2.62125,-3.13815156101786e-05
-2.62,-0.000120001523392777
-2.61875,-0.000198539582887515
-2.6175,-0.00027576766529633
-2.61625,-0.000361906711319786
-2.615,-0.000466226042602524
-2.61375,-0.000594800223962845
-2.6125,-0.000748987954958418
-2.61125,-0.000924973085290214
-2.61,-0.0011144131239874
-2.60875,-0.00130605094009971
-2.6075,-0.00148800810793132
-2.60625,-0.00165028286329709
-2.605,-0.0017868300142563
-2.60375,-0.00189671222657923
-2.6025,-0.00198413460253098
-2.60125,-0.00205744425270108
-2.6,-0.00212729255554359
-2.59875,-0.00220426620250396
-2.5975,-0.00229647816461596
-2.59625,-0.00240770936428932
-2.595,-0.00253654053415808
-2.59375,-0.00267661347225741
-2.5925,-0.00281792892422973
-2.59125,-0.00294894830269128
-2.59,-0.00305908987854994
-2.58875,-0.00314102318135074
-2.5875,-0.00319218072803835
-2.58625,-0.00321518216599492
-2.585,-0.00321717810051292
-2.58375,-0.00320828180267361
-2.5825,-0.00319934962657522
-2.58125,-0.00319953894323408
-2.58,-0.00321422736702069
-2.57875,-0.00324380998006463
-2.5775,-0.00328361104772541
-2.57625,-0.00332487421946123
-2.575,-0.00335663786581961
-2.57375,-0.00336815220422847
-2.5725,-0.00335129633820186
-2.57125,-0.00330238008882644
-2.57,-0.00322291868164336
-2.56875,-0.00311930083684272
-2.5675,-0.00300148499200695
-2.56625,-0.00288095011104589
-2.565,-0.00276826449259048
-2.56375,-0.00267081831176371
-2.5625,-0.00259128660125886
-2.56125,-0.00252716202915566
-2.56,-0.0024713994209886
-2.55875,-0.002414023865666
-2.5575,-0.00234441937147323
-2.55625,-0.00225382234102052
-2.555,-0.0021373986120571
-2.55375,-0.00199539285800457
-2.5525,-0.00183316090345698
-2.55125,-0.00166016672260573
-2.55,-0.00148814317373363
-2.54875,-0.00132872364118643
-2.5475,-0.00119103541138982
-2.54625,-0.00107984365202241
-2.545,-0.000994682529685956
-2.54375,-0.00093011006610953
-2.5425,-0.000876993617815516
-2.54125,-0.000824595838192589
-2.54,-0.000763055104592855
-2.53875,-0.000685665499832669
-2.5375,-0.000590375632613582
-2.53625,-0.000480202601201762
-2.535,-0.000362570253546054
-2.53375,-0.000247740424628427
-2.5325,-0.000146596116996341
-2.53125,-6.82020214686869e-05
-2.53,-1.77236671337102e-05
-2.52875,4.77694911161224e-06
-2.5275,4.42822431620244e-06
-2.52625,-9.45011201553157e-06
-2.525,-2.52401455159239e-05
-2.52375,-3.14687384076324e-05
-2.5225,-1.92562535995017e-05
-2.52125,1.58479939516096e-05
-2.52,7.30608402658757e-05
-2.51875,0.000146674779289468
-2.5175,0.00022734941140148
-2.51625,0.000304158845541204
-2.515,0.000367029679381252
-2.51375,0.000409019761214598
-2.5125,0.00042786774039601
-2.51125,0.000426473137180255
-2.51,0.000412264942133243
-2.50875,0.000395606066756391
-2.5075,0.000387515129623879
-2.50625,0.000397180329113916
-2.505,0.000429887127149651
-2.50375,0.00048587208270229
-2.5025,0.000560292646790939
-2.50125,0.000644230600014261
-2.5,0.000726529732686092
-2.49875,0.000796161178119755
-2.4975,0.000844626135862055
-2.49625,0.000867805996982404
-2.495,0.000866820305383193
-2.49375,0.000847753172085003
-2.4925,0.000820341996912134
-2.49125,0.000795863467515532
-2.49,0.00078462779933014
-2.48875,0.000793677616010495
-2.4875,0.00082527157915064
-2.48625,0.000876456713696267
-2.485,0.000939721468593907
-2.48375,0.00100456153618072
-2.4825,0.00105969952184586
-2.48125,0.00109553311333744
-2.48,0.00110623057182618
-2.47875,0.00109095578503751
-2.4775,0.00105398199480438
-2.47625,0.00100372533001043
-2.475,0.000950887645959482
-2.47375,0.000906048552782056
-2.4725,0.000877246298075637
-2.47125,0.000868164850739
-2.47,0.000877346021023219
-2.46875,0.000898513098848527
-2.4675,0.000921874699939787
-2.46625,0.000936182493066627
-2.465,0.000931177904202013
-2.46375,0.000899879674248712
-2.4625,0.000840142200504113
-2.46125,0.000755140732094239
-2.46,0.000652736414237428
-2.45875,0.000543865957177783
-2.4575,0.000440239253156702
-2.45625,0.000351824569077954
-2.455,0.000284747617213536
-2.45375,0.000240118982082264
-2.4525,0.000213980223942651
-2.45125,0.000198286982389329
-2.45,0.000182730548984287
-2.44875,0.000157091392710733
-2.4475,0.000113633506516861
-2.44625,4.89488247338905e-05
-2.445,-3.51873040581015e-05
-2.44375,-0.000132087415224366
-2.4425,-0.000231455958661572
-2.44125,-0.000321493782931081
-2.44,-0.000391395675677342
-2.43875,-0.000433645967699453
-2.4375,-0.000445531012788404
-2.43625,-0.000429563253995461
-2.435,-0.000392825133980155
-2.43375,-0.000345402597020314
-2.4325,-0.000298169134897766
-2.43125,-0.000260347320458087
-2.43,-0.000237429665215787
-2.42875,-0.000229975800653932
-2.4275,-0.0002335248459806
-2.42625,-0.000239588934899336
-2.425,-0.000237534070944084
-2.42375,-0.000217002106422221
-2.4225,-0.000170328411928707
-2.42125,-9.43376942314793e-05
-2.42,8.89413801004891e-06
-2.41875,0.000132389651046884
-2.4175,0.000265594153632088
-2.41625,0.000396447102841832
-2.415,0.000513837211895428
-2.41375,0.0006098947979238
-2.4125,0.000681552425546283
-2.41125,0.000731031927060555
-2.41,0.00076521447242165
-2.40875,0.000794041407909277
-2.4075,0.000828228035606881
-2.40625,0.000876765099187561
-2.405,0.000944830070161541
-2.40375,0.00103262208998522
-2.4025,0.00113531232343354
-2.40125,0.00124402881750177
-2.4,0.00134767710901577
-2.39875,0.00143529042191231
-2.3975,0.00149842004629687
-2.39625,0.00153297703308138
-2.395,0.00154008662889464
-2.39375,0.00152581661010866
-2.3925,0.00149987266753524
-2.39125,0.00147349370493721
-2.39,0.00145695633563234
-2.38875,0.00145728547644852
-2.3875,0.00147675239272194
-2.38625,0.00151246318398464
-2.385,0.00155702667100296
-2.38375,0.00160013129421086
-2.3825,0.00163077156259807
-2.38125,0.0016396986591288
-2.38,0.00162151329917974
-2.37875,0.00157588207669198
-2.3775,0.00150763608572488
-2.37625,0.00142578386858123
-2.375,0.00134163084188237
-2.37375,0.00126634971084618
-2.3725,0.00120854647835639
-2.37125,0.00117244115599047
-2.37,0.00115707892759984
-2.36875,0.00115665255672234
-2.3675,0.00116179994227557
-2.36625,0.00116164845558062
-2.365,0.00114624178658927
-2.36375,0.0011088033718258
-2.3625,0.00104726914376853
-2.36125,0.000964749338379408
-2.36,0.000868877200408955
-2.35875,0.000770193952954651
-2.3575,0.000679855460245111
-2.35625,0.000607139191293614
-2.355,0.000557374670462814
-2.35375,0.000530807468623972
-2.3525,0.000522581392233365
-2.35125,0.000523751156288253
-2.35,0.000523122974407161
-2.34875,0.000509616652757153
-2.3475,0.000474661647097803
-2.34625,0.000414040372364931
-2.345,0.000328742074475639
-2.34375,0.000224690274627123
-2.3425,0.000111438435020909
-2.34125,6.72929725486156e-08
-2.34,-9.93073435172375e-05
-2.33875,-0.000179820928351479
-2.3375,-0.00023936081771979
-2.33625,-0.000280978136508841
-2.335,-0.00031221995603573
-2.33375,-0.000343549792910835
-2.3325,-0.000386114121336402
-2.33125,-0.000449279376884883
-2.33,-0.000538521692537359
-2.32875,-0.000654189963610717
-2.3275,-0.000791385984522161
-2.32625,-0.000940931562974198
-2.325,-0.00109123176341508
-2.32375,-0.00123069169213051
-2.3225,-0.00135014515475826
-2.32125,-0.00144467835436189
-2.32,-0.00151443257501446
-2.31875,-0.00156430216692757
-2.3175,-0.00160266050783598
-2.31625,-0.00163934049655043
-2.315,-0.00168323355631581
-2.31375,-0.00174005300862971
-2.3125,-0.00181082962126797
-2.31125,-0.00189148176693647
-2.31,-0.00197350486572403
-2.30875,-0.00204562967996537
-2.3075,-0.00209615475681814
-2.30625,-0.00211545818573212
-2.305,-0.00209805440377692
-2.30375,-0.00204369103966871
-2.3025,-0.00195731704802168
-2.30125,-0.00184802316017413
-2.3,-0.00172716387217152
-2.29875,-0.00160597223707414
-2.2975,-0.00149316020818032
-2.29625,-0.00139309417585827
-2.295,-0.00130498153592924
-2.29375,-0.00122320112262665
-2.2925,-0.0011386746025463
-2.29125,-0.00104103056500701
-2.29,-0.000921131379380735
-2.28875,-0.000773350234510874
-2.2875,-0.000597020628007463
-2.28625,-0.000396776589241565
-2.285,-0.000181815863255226
-2.28375,3.57334179603023e-05
-2.2825,0.000243081058610593
-2.28125,0.000429253780581559
-2.28,0.000587205353605286
-2.27875,0.000715041378459487
-2.2775,0.000816118913620011
-2.27625,0.000898054701899511
-2.275,0.000970837327227822
-2.27375,0.00104439252118806
-2.2725,0.00112615117046705
-2.27125,0.00121924142528421
-2.27,0.00132171900754251
-2.26875,0.00142691368281533
-2.2675,0.00152475488745394
-2.26625,0.00160384889102458
-2.265,0.00165394322762063
-2.26375,0.00166822965187028
-2.2625,0.00164491271280646
-2.26125,0.0015876974315549
-2.26,0.00150514921753817
-2.25875,0.00140907231456771
-2.2575,0.00131218949554057
-2.25625,0.00122559912280609
-2.255,0.00115663337504863
-2.25375,0.00110763502133403
-2.2525,0.00107585035078547
-2.25125,0.00105436325578188
-2.25,0.00103387562753709
-2.24875,0.00100502978410955
-2.2475,0.000960783394739501
-2.24625,0.000898245049839964
-2.245,0.000819526483046998
-2.24375,0.000731467958724159
-2.2425,0.000644328988851632
-2.24125,0.000569679449809483
-2.24,0.000517903806547649
-2.23875,0.000495918079641758
-2.2375,0.000505681052024563
-2.23625,0.000543800336341117
-2.235,0.000602219770592017
-2.23375,0.000669816643292503
-2.2325,0.000734649157042678
-2.23125,0.00078642877885225
-2.23,0.000818634979976121
-2.22875,0.000829751719160103
-2.2275,0.000823381990261043
-2.22625,0.000807271247502903
-2.225,0.00079143278845144
-2.22375,0.000785722522453616
-2.2225,0.000797411981209817
-2.22125,0.000829382011981027
-2.22,0.000879352752400586
-2.21875,0.000940227977043656
-2.2175,0.00100141579402745
-2.21625,0.00105089758696532
-2.215,0.00107768232629473
-2.21375,0.00107410100251809
-2.2125,0.00103737251410424
-2.21125,0.00097009739665718
-2.21,0.000879633200687722
-2.20875,0.00077649687613425
-2.2075,0.000672075202606418
-2.20625,0.000576117415857484
-2.205,0.000494631558722738
-2.20375,0.000428698860792321
-2.2025,0.000374400014309631
-2.20125,0.000323775511572275
-2.2,0.000266624852294374
-2.19875,0.000192842375736227
-2.1975,9.48033912565987e-05
-2.19625,-3.07877481575704e-05
-2.195,-0.000182028729487788
-2.19375,-0.000352072237004296
-2.1925,-0.000530410775146664
-2.19125,-0.000704962733871959
-2.19,-0.000864552851700581
-2.18875,-0.00100119304266764
-2.1875,-0.0011115843970613
-2.18625,-0.00119753785861975
-2.185,-0.00126532382210974
-2.18375,-0.00132411957963608
-2.1825,-0.00138381177328259
-2.18125,-0.00145257672323085
-2.18,-0.00153482000146647
-2.17875,-0.00162999625402434
-2.1775,-0.00173255284893376
-2.17625,-0.00183296451107272
-2.175,-0.00191966092836834
-2.17375,-0.00198149115119313
-2.1725,-0.00201016699962006
-2.17125,-0.00200206187120691
-2.17,-0.00195895799631807
-2.16875,-0.00188767508816143
-2.1675,-0.001798724579719
-2.16625,-0.00170421844979324
-2.165,-0.00161539455854711
-2.16375,-0.00154030395584708
-2.1625,-0.00148223133302048
-2.16125,-0.00143919599060523
-2.16,-0.0014045820667887
-2.15875,-0.00136875099479663
-2.1575,-0.00132134655298163
-2.15625,-0.00125380420134223
-2.155,-0.00116143239444863
-2.15375,-0.00104455357113347
-2.1525,-0.000908523851056131
-2.15125,-0.000762722730612105
-2.15,-0.000618715956237534
-2.14875,-0.000487897153213846
-2.1475,-0.00037909538691111
-2.14625,-0.000296736356304845
-2.145,-0.000239995620133674
-2.14375,-0.000203081050511102
-2.1425,-0.000176547612825174
-2.14125,-0.000149408388498902
-2.14,-0.000111632258687977
-2.13875,-5.64338990515365e-05
-2.1375,1.82217790056824e-05
-2.13625,0.000109201686738826
-2.135,0.000208862430739358
-2.13375,0.000306615720643451
-2.1325,0.000391145555391958
-2.13125,0.000452856769828425
-2.13,0.000485976493608292
-2.12875,0.000489788980091733
-2.1275,0.000468758931979834
-2.12625,0.000431571850626486
-2.125,0.000389279769147755
-2.12375,0.000352890108490183
-2.1225,0.000330934259428367
-2.12125,0.000327632685976301
-2.12,0.000342078465745195
-2.11875,0.000368529283705113
-2.1175,0.000397678813112376
-2.11625,0.000418684507937957
-2.115,0.000421592642404686
-2.11375,0.000399617105993013
-2.1125,0.000350701830135386
-2.11125,0.000278019854061923
-2.11,0.000189359619225544
-2.10875,9.55410437614182e-05
-2.1075,8.13955150082926e-06
-2.10625,-6.30095945988678e-05
-2.105,-0.000111904345407873
-2.10375,-0.000137549670355863
-2.1025,-0.000144017311749131
-2.10125,-0.000139471058421364
-2.1,-0.000134355463861693
-2.09875,-0.000139051758613391
-2.0975,-0.000161487561857522
-2.09625,-0.000205289555725167
-2.095,-0.000268921882749745
-2.09375,-0.000345953668620189
-2.0925,-0.000426364103872256
-2.09125,-0.000498651222633544
-2.09,-0.000552333735694623
-2.08875,-0.000580248251343412
-2.0875,-0.000580059474210148
-2.08625,-0.000554678248296705
-2.085,-0.000511596523349665
-2.08375,-0.000461309290856137
-2.0825,-0.000415082869943982
-2.08125,-0.000382493607951415
-2.08,-0.000369318315083529
-2.07875,-0.000376297831919547
-2.0775,-0.000399019523753177
-2.07625,-0.000428890239559436
-2.075,-0.000455009310485508
-2.07375,-0.000466597584479815
-2.0725,-0.000455437184161628
-2.07125,-0.000417700728524311
-2.07,-0.000354751392456572
-2.06875,-0.000272830375809344
-2.0675,-0.000181765564721666
-2.06625,-9.29268938196283e-05
-2.065,-1.67889657079926e-05
-2.06375,3.93551624883032e-05
-2.0625,7.29586533287946e-05
-2.06125,8.67166263673117e-05
-2.06,8.7944491565938e-05
-2.05875,8.6984511350515e-05
-2.0575,9.49221454977895e-05
-2.05625,0.000121085810670755
-2.055,0.000170951062892066
-2.05375,0.000244963459316865
-2.0525,0.000338473429015273
-2.05125,0.000442703724947948
-2.05,0.000546552563217068
-2.04875,0.000638930054016151
-2.0475,0.000711142907519522
-2.04625,0.000758739824281994
-2.045,0.000782376675508444
-2.04375,0.000787560536333741
-2.0425,0.000783365598140811
-2.04125,0.000780353271741564
-2.04,0.000788103267252156
-2.03875,0.000812949528424365
-2.0375,0.000856500572509928
-2.03625,0.000915246870156542
-2.035,0.00098124419319065
-2.03375,0.00104370242183324
-2.0325,0.00109122204824097
-2.03125,0.00111425728467617
-2.03,0.00110722694985204
-2.02875,0.00106975231214479
-2.0275,0.00100677547482193
-2.02625,0.000927586621597122
-2.025,0.0008439498509696
-2.02375,0.000767667176047363
-2.0225,0.000708119130737093
-2.02125,0.000670400706256969
-2.02,0.000654475927237881
-2.01875,0.000655441318380352
-2.0175,0.000664768522587808
-2.01625,0.000672302323973709
-2.015,0.00066865485108003
-2.01375,0.000647452971288424
-2.0125,0.000606869031924229
-2.01125,0.00055008849750474
-2.01,0.000484667316584053
-2.00875,0.000420925916998763
-2.0075,0.000369663897145279
-2.00625,0.000339673844479309
-2.005,0.000335679666953283
-2.00375,0.000357213424472775
-2.0025,0.000398618508899696
-2.00125,0.000450091987314683
-2,0.000499562193804418
-1.99875,0.000535094468226813
-1.9975,0.00054733714150528
-1.99625,0.000531417031171066
-1.995,0.000487839336005454
-1.99375,0.000422247846413415
-1.9925,0.000344138643759473
-1.99125,0.000264762004061493
-1.99,0.000194621564864059
-1.98875,0.000141166702044195
-1.9875,0.000107260816874944
-1.98625,9.07322516481193e-05
-1.985,8.50005223115377e-05
-1.98375,8.06100191796191e-05
-1.9825,6.74147518369357e-05
-1.98125,3.69929263286212e-05
-1.98,-1.52886335893984e-05
-1.97875,-8.90816346053439e-05
-1.9775,-0.00017897985956707
-1.97625,-0.000275527172258424
-1.975,-0.000367115066308511
-1.97375,-0.000442422864676699
-1.9725,-0.000492855227584002
-1.97125,-0.00051435821201942
-1.97,-0.000508199167983
-1.96875,-0.000480631560796274
-1.9675,-0.000441582905856639
-1.96625,-0.000402593860529552
-1.965,-0.000374368822081905
-1.96375,-0.000364480823204337
-1.9625,-0.000375800583919416
-1.96125,-0.000405996495601035
-1.96,-0.000448153038965593
-1.95875,-0.000492361257441959
-1.9575,-0.000527998175011262
-1.95625,-0.000546218289391055
-1.955,-0.000542033291382367
-1.95375,-0.000515465625845608
-1.9525,-0.000471584598866151
-1.95125,-0.000419507070115133
-1.95,-0.000370562102521122
-1.94875,-0.000335923997528857
-1.9475,-0.000324200563609894
-1.94625,-0.000339566716649814
-1.945,-0.000380887493319906
-1.94375,-0.00044197392373003
-1.9425,-0.000512879848708015
-1.94125,-0.000582008111143179
-1.94,-0.000638620333559999
-1.93875,-0.000675155655093065
-1.9375,-0.000688773737456053
-1.93625,-0.000681810894037266
-1.935,-0.00066115297238258
-1.93375,-0.000636691974900911
-1.9325,-0.00061912376199855
-1.93125,-0.000617509006902416
-1.93,-0.000637178391220569
-1.92875,-0.00067850554231754
-1.9275,-0.000736795644805807
-1.92625,-0.000803260803688556
-1.925,-0.000866890501273448
-1.92375,-0.000916875116589204
-1.9225,-0.000945041412831324
-1.92125,-0.000947679622083476
-1.92,-0.000926339785533744
-1.91875,-0.00088751093682814
-1.9175,-0.000841317845953315
-1.91625,-0.000799462582742557
-1.915,-0.00077277115953302
-1.91375,-0.000768888415497923
-1.9125,-0.000790692153723294
-1.91125,-0.000835774923528052
-1.91,-0.000897042554286864
-1.90875,-0.000964285689329254
-1.9075,-0.00102644660950756
-1.90625,-0.00107411105555439
-1.905,-0.00110160377515774
-1.90375,-0.00110816974585042
-1.9025,-0.00109804376799473
-1.90125,-0.0010794863211128
-1.9,-0.00106298260372599
-1.89875,-0.00105890682186013
-1.8975,-0.00107513668512398
-1.89625,-0.00111520797661272
-1.895,-0.00117745476951934
-1.89375,-0.0012552807473089
-1.8925,-0.00133847016214931
-1.89125,-0.00141530478567302
-1.89,-0.00147507821006129
-1.88875,-0.00151041122649332
-1.8875,-0.00151878346920864
-1.88625,-0.00150297150357036
-1.885,-0.00147039936271287
-1.88375,-0.00143157067252791
-1.8825,-0.00139784053628683
-1.88125,-0.00137894869606296
-1.88,-0.00138089307662584
-1.87875,-0.00140466458573284
-1.8775,-0.00144608997189379
-1.87625,-0.0014967573768995
-1.875,-0.00154584102558024
-1.87375,-0.00158249176780098
-1.8725,-0.00159825843103202
-1.87125,-0.00158892185967047
-1.87,-0.00155531750072107
-1.86875,-0.00150305483261026
-1.8675,-0.00144126179367946
-1.86625,-0.00138057641537807
-1.865,-0.0013307433947732
-1.86375,-0.00129835788258524
-1.8625,-0.0012853271196139
-1.86125,-0.00128839787063436
-1.86,-0.00129979768053051
-1.85875,-0.0013088433525584
-1.8575,-0.00130423335447727
-1.85625,-0.001276547045767
-1.855,-0.00122032681206686
-1.85375,-0.00113523136863458
-1.8525,-0.00102607492309382
-1.85125,-0.000901839015315802
-1.85,-0.000773856070991325
-1.84875,-0.000653464917595943
-1.8475,-0.000549620031415738
-1.84625,-0.000467040308437293
-1.845,-0.000405339104798742
-1.84375,-0.000359278474269021
-1.8425,-0.000320054525561129
-1.84125,-0.000277379339521573
-1.84,-0.000221951325078186
-1.83875,-0.000147720593845303
-1.8375,-5.33702255202721e-05
-1.83625,5.72889766877612e-05
-1.835,0.000175998164240776
-1.83375,0.000291633223071855
-1.8325,0.000392434155605435
-1.83125,0.00046846363794869
-1.83,0.000513719836125096
-1.82875,0.000527384182610399
-1.8275,0.000513956667936885
-1.82625,0.00048230488909344
-1.825,0.00044381369279534
-1.82375,0.000409970403684751
-1.8225,0.000389918665253562
-1.82125,0.000388596876240374
-1.82,0.000405886767182516
-1.81875,0.000436866948647361
-1.8175,0.000473044394741613
-1.81625,0.000504341098005616
-1.815,0.000521478879819492
-1.81375,0.000518222802585686
-1.8125,0.000492915453765138
-1.81125,0.000448955172579927
-1.81,0.000394168142388547
-1.80875,0.000339216385787835
-1.8075,0.000295319955647014
-1.80625,0.000271766901991093
-1.805,0.000273834866604464
-1.80375,0.000301641037969102
-1.8025,0.000350113117586777
-1.80125,0.000409998431759277
-1.8,0.000469711357738712
-1.79875,0.000517716456220059
-1.7975,0.000544962808117388
-1.79625,0.00054677977597556
-1.795,0.000523787997854353
-1.79375,0.000481678655128853
-1.7925,0.000429949441641481
-1.79125,0.000379825653692294
-1.79,0.000341768251692616
-1.78875,0.000323160224253947
-1.7875,0.000326756708800175
-1.78625,0.000350213957860094
-1.785,0.00038669689812379
-1.78375,0.000426400788836358
-1.7825,0.000458733310941123
-1.78125,0.000474739698442168
-1.78,0.00046919318197869
-1.77875,0.000441826752568616
-1.7775,0.000397454870145325
-1.77625,0.000345010432969603
-1.775,0.000295685694171892
-1.77375,0.000260515308737805
-1.7725,0.000247938520518559
-1.77125,0.000261959726364188
-1.77,0.00030133253573759
-1.76875,0.000359858039880225
-1.7675,0.000427665935613035
-1.76625,0.000493253513019518
-1.765,0.000545924938895212
-1.76375,0.000578090632311866
-1.7625,0.000586856242894278
-1.76125,0.000574549970086076
-1.76,0.00054813580434049
-1.75875,0.00051765491486344
-1.7575,0.000493970604170264
-1.75625,0.000486281596360408
-1.755,0.00050002039352199
-1.75375,0.000535656924536557
-1.7525,0.000588611847481052
-1.75125,0.000650207412330878
-1.75,0.000709461831409683
-1.74875,0.000755427490953063
-1.7475,0.00077959044570493
-1.74625,0.000777741416530749
-1.745,0.00075086992381361
-1.74375,0.000704932724823653
-1.7425,0.000649585010552417
-1.74125,0.000596102645876316
-1.74,0.00055489461954779
-1.73875,0.00053319339682933
-1.7375,0.000533507860495352
-1.73625,0.000553156746545362
-1.735,0.00058488553685283
-1.73375,0.000618403217189368
-1.7325,0.000642584134138367
-1.73125,0.000647915891901382
-1.73,0.000628613786581964
-1.72875,0.000583875903698689
-1.7275,0.000518025742236141
-1.72625,0.000439566271568387
-1.725,0.000359333200696523
-1.72375,0.000288084913424986
-1.7225,0.00023406520156079
-1.72125,0.000201158515619817
-1.72,0.000188066282147204
-1.71875,0.000188599466603393
-1.7175,0.000192958577567062
-1.71625,0.00018977683673863
-1.715,0.000168568941445033
-1.71375,0.000122044172980168
-1.7125,4.77112030736021e-05
-1.71125,-5.15789778769065e-05
-1.71,-0.000168206497961708
-1.70875,-0.0002913321561795
-1.7075,-0.000409148905609974
-1.70625,-0.000511370270654165
-1.705,-0.00059133813241197
-1.70375,-0.000647229962274266
-1.7025,-0.000682163123710104
-1.70125,-0.000703270700904036
-1.7,-0.000719943804400937
-1.69875,-0.000741538950508824
-1.6975,-0.000775031126967794
-1.69625,-0.000823200435563439
-1.695,-0.000883798583312092
-1.69375,-0.000949841251595898
-1.6925,-0.0010109342778141
-1.69125,-0.00105539941673369
-1.69,-0.00107279014161275
-1.68875,-0.00105619952277466
-1.6875,-0.00100377551960447
-1.68625,-0.000919137525337075
-1.685,-0.000810704165123379
-1.68375,-0.000690102244367305
-1.6825,-0.000569912629400448
-1.68125,-0.000461171127288154
-1.68,-0.00037120208141659
-1.67875,-0.000302309751263035
-1.6775,-0.000251582800529201
-1.67625,-0.000211792235333698
-1.675,-0.000173198636307841
-1.67375,-0.000125933374480449
-1.6725,-6.24190782360199e-05
-1.67125,2.07892983950779e-05
-1.67,0.000122170840662172
-1.66875,0.000235508477053171
-1.6675,0.000351136057337421
-1.66625,0.000457941921671639
-1.665,0.000545774139696085
-1.66375,0.000607707151259442
-1.6625,0.000641596528100276
-1.66125,0.000650567871999354
-1.66,0.000642387413696057
-1.65875,0.000627859556174094
-1.6575,0.000618532450657649
-1.65625,0.000624183904784338
-1.655,0.000650709943175942
-1.65375,0.000698935195466966
-1.6525,0.000764542514153545
-1.65125,0.000839042282702613
-1.65,0.000911583255648033
-1.64875,0.000971304503053307
-1.6475,0.00100974633794169
-1.64625,0.00102273049049984
-1.645,0.00101126176983548
-1.64375,0.000981304350954774
-1.6425,0.000942522005306511
-1.64125,0.000906208404110722
-1.64,0.000882803718772569
-1.63875,0.000879584189206974
-1.6375,0.000899110005430899
-1.63625,0.000938750157814772
-1.635,0.000991287659123439
-1.63375,0.00104644287473854
-1.6325,0.00109306328618026
-1.63125,0.00112156429010861
-1.63,0.0011260435314424
-1.62875,0.00110554267935805
-1.6275,0.00106420274565133
-1.62625,0.0010103364153897
-1.625,0.000954603146865329
-1.62375,0.000907619529673575
-1.6225,0.000877535910350435
-1.62125,0.000868197146337254
-1.62,0.000878316405357595
-1.61875,0.000901756995294369
-1.6175,0.000928793221417807
-1.61625,0.000948128499109819
-1.615,0.000949318753762815
-1.61375,0.000925065223719547
-1.6125,0.000872805476278975
-1.61125,0.000795246613736048
-1.61,0.0006997826977598
-1.60875,0.000596934427990051
-1.6075,0.000498084790921044
-1.60625,0.000412976790289255
-1.605,0.000347593597050247
-1.60375,0.000302944984242076
-1.6025,0.000274966183186407
-1.60125,0.00025545714466317
-1.6,0.000233868530001027
-1.59875,0.000199637043879829
-1.5975,0.000144590542796362
-1.59625,6.48337456538993e-05
-1.595,-3.83369476997791e-05
-1.59375,-0.000158643783391473
-1.5925,-0.000286080231553493
-1.59125,-0.000408981475465019
-1.59,-0.00051651469269045
-1.58875,-0.000600999421616399
-1.5875,-0.000659469759860432
-1.58625,-0.000694157828696763
-1.585,-0.000711894898276618
-1.58375,-0.000722593300385707
-1.5825,-0.000737061053683161
-1.58125,-0.000764563672990769
-1.58,-0.000810709830029941
-1.57875,-0.000876187563726275
-1.5775,-0.000956607142743477
-1.57625,-0.0010434296291051
-1.575,-0.00112579606708798
-1.57375,-0.00119292325022677
-1.5725,-0.00123653372437582
-1.57125,-0.00125270264886157
-1.57,-0.00124269290356489
-1.56875,-0.00121268135230488
-1.5675,-0.00117250210432004
-1.56625,-0.00113362735333185
-1.565,-0.00110673909721799
-1.56375,-0.00109942965427493
-1.5625,-0.00111460346424763
-1.56125,-0.00114993644672869
-1.56,-0.00119845041247856
-1.55875,-0.00125006417101336
-1.5575,-0.00129384833469111
-1.55625,-0.00132051962693963
-1.555,-0.00132455636967252
-1.55375,-0.00130541156723774
-1.5525,-0.00126761553174097
-1.55125,-0.00121983738646573
-1.55,-0.00117309728159135
-1.54875,-0.00113842611359267
-1.5475,-0.00112445265016454
-1.54625,-0.0011355087486249
-1.545,-0.00117070710093425
-1.54375,-0.0012241485364241
-1.5425,-0.00128617622185388
-1.54125,-0.00134545011522545
-1.54,-0.00139144110791684
-1.53875,-0.00141675407785285
-1.5375,-0.00141869127305326
-1.53625,-0.00139973492516826
-1.535,-0.0013669447501915
-1.53375,-0.00133043300432243
-1.5325,-0.00130116908263015
-1.53125,-0.00128852871967033
-1.53,-0.00129816581373912
-1.52875,-0.00133073577582201
-1.5275,-0.00138172868304384
-1.52625,-0.0014423926410398
-1.525,-0.00150156360914346
-1.52375,-0.00154806973954637
-1.5225,-0.0015731788408618
-1.52125,-0.00157246884196558
-1.52,-0.00154668738793343
-1.51875,-0.00150149928941843
-1.5175,-0.00144624589170633
-1.51625,-0.00139193653800846
-1.515,-0.00134882559178567
-1.51375,-0.0013241135755343
-1.5125,-0.00132034602837176
-1.51125,-0.00133486809466586
-1.51,-0.00136039469839649
-1.50875,-0.00138656036228672
-1.5075,-0.00140217718350191
-1.50625,-0.00139773618182359
-1.505,-0.00136753091638012
-1.50375,-0.001310876809069
-1.5025,-0.00123221692755048
-1.50125,-0.00114018439597862
-1.5,-0.00104581500559549
-1.49875,-0.000960207946627587
-1.4975,-0.000892114766438236
-1.49625,-0.000846047235009207
-1.495,-0.000821357698007716
-1.49375,-0.000812446136672606
-1.4925,-0.000810008019100704
-1.49125,-0.000803095630855438
-1.49,-0.000781595197563209
-1.48875,-0.000738533540938486
-1.4875,-0.000671629145162666
-1.48625,-0.000583767820939869
-1.485,-0.000482398544879646
-1.48375,-0.000378011418337493
-1.4825,-0.000281947893539244
-1.48125,-0.000203955455910951
-1.48,-0.00015006272104068
-1.47875,-0.000121303791265231
-1.4775,-0.000113550595466811
-1.47625,-0.000118432813893779
-1.475,-0.00012516055426229
-1.47375,-0.000122918215326807
-1.4725,-0.000103299613611589
-1.47125,-6.21656057329281e-05
-1.47,-4.91830166831945e-07
-1.46875,7.58926000620474e-05
-1.4675,0.000157549690367722
-1.46625,0.000233440334908431
-1.465,0.000293343228364301
-1.46375,0.000330147400033297
-1.4625,0.000341444459415953
-1.46125,0.000330061841816282
-1.46,0.000303477862504923
-1.45875,0.000272256866588372
-1.4575,0.000247778242435077
-1.45625,0.000239724626337747
-1.455,0.000253949770164616
-1.45375,0.000291252580680843
-1.4525,0.000347267504168917
-1.45125,0.000413402040947053
-1.45,0.000478628400210655
-1.44875,0.000531831905808797
-1.4475,0.000564236370953658
-1.44625,0.000571315078532646
-1.445,0.000553731302890631
-1.44375,0.000517150027453134
-1.4425,0.000471002677000941
-1.44125,0.000426430021500002
-1.44,0.000393801363276078
-1.43875,0.000380398794354701
-1.4375,0.000388855246773132
-1.43625,0.000416669310496595
-1.435,0.000456802536645205
-1.43375,0.00049919655663036
-1.4325,0.000532958323748068
-1.43125,0.000548799963745471
-1.43,0.000541156338214059
-1.42875,0.000509450852059511
-1.4275,0.000458250239672542
-1.42625,0.000396328036196635
-1.425,0.000334821608625742
-1.42375,0.000284816364934271
-1.4225,0.000254890581809149
-1.42125,0.000249242849791691
-1.42,0.000266836665735278
-1.41875,0.000301662260572522
-1.4175,0.000343989425719839
-1.41625,0.000382390318435408
-1.415,0.000406180291651502
-1.41375,0.000407739502578732
-1.4125,0.000384139460117459
-1.41125,0.000337711501894035
-1.41,0.000275493884100452
-1.40875,0.000207693403409049
-1.4075,0.000145433825279986
-1.40625,9.82551836825346e-05
-1.405,7.19844222171182e-05
-1.40375,6.75055388530377e-05
-1.4025,8.0641201572365e-05
-1.40125,0.000103077437990272
-1.4,0.000124139209458096
-1.39875,0.000133121299908243
-1.3975,0.000121696784373189
-1.39625,8.58127987358974e-05
-1.395,2.66178347247025e-05
-1.39375,-4.97376503436807e-05
-1.3925,-0.000133345819621077
-1.39125,-0.000212607346080873
-1.39,-0.000276721650308305
-1.38875,-0.000318012149553779
-1.3875,-0.000333496088172147
-1.38625,-0.000325375334315209
-1.385,-0.000300443482398274
-1.38375,-0.000268573247037974
-1.3825,-0.000240536059004904
-1.38125,-0.000225566092721002
-1.38,-0.000229243550380267
-1.37875,-0.000252225563390016
-1.3775,-0.000290084706630383
-1.37625,-0.0003342368727558
-1.375,-0.000373774535936664
-1.37375,-0.00039787174533608
-1.3725,-0.000398226582652461
-1.37125,-0.000370918912999861
-1.37,-0.000317251056585842
-1.36875,-0.000243475067182504
-1.3675,-0.000159535939377406
-1.36625,-7.70528907170254e-05
-1.365,-6.88976477358407e-06
-1.36375,4.31508206421378e-05
-1.3625,6.99373549347377e-05
-1.36125,7.55641455064398e-05
-1.36,6.67907446610216e-05
-1.35875,5.35034921802465e-05
-1.3575,4.64706437103499e-05
-1.35625,5.48529330685389e-05
-1.355,8.4087837416517e-05
-1.35375,0.000134673994864589
-1.3525,0.000202065954480361
-1.35125,0.000277608834757985
-1.35,0.000350319304595559
-1.34875,0.000409217501251673
-1.3475,0.000445733511805203
-1.34625,0.000455598922033941
-1.345,0.00043976737785071
-1.34375,0.000404206516156612
-1.3425,0.000358645120400226
-1.34125,0.00031450116559931
-1.34,0.000282386175938645
-1.33875,0.000269771826984229
-1.3375,0.000279408320889416
-1.33625,0.000308821261925312
-1.335,0.000350896187562883
-1.33375,0.00039539009476514
-1.3325,0.000431119724876043
-1.33125,0.00044841455446101
-1.33,0.000441258261684997
-1.32875,0.000408587552803075
-1.3275,0.000354485198387584
-1.32625,0.00028728284670711
-1.325,0.00021775472612115
-1.32375,0.000156730868339714
-1.3225,0.00011265763439988
-1.32125,8.97255857273908e-05
-1.32,8.70032020596098e-05
-1.31875,9.8682689632204e-05
-1.3175,0.000115315522191371
-1.31625,0.000125818219998176
-1.315,0.000119897735800602
-1.31375,9.03608060250175e-05
-1.3125,3.47321222368387e-05
-1.31125,-4.41825314883788e-05
-1.31,-0.000138853234013506
-1.30875,-0.000238568573079694
-1.3075,-0.000331692673698127
-1.30625,-0.000408173589229071
-1.305,-0.000461683064717472
-1.30375,-0.000490857903387456
-1.3025,-0.000499428462517069
-1.30125,-0.000495301889939805
-1.3,-0.00048879305934635
-1.29875,-0.000490299099623655
-1.2975,-0.000507894970232418
-1.29625,-0.000545441056692644
-1.295,-0.000601660391114712
-1.29375,-0.000670344516649297
-1.2925,-0.00074160509682949
-1.29125,-0.000803945420197412
-1.29,-0.000846754012222581
-1.28875,-0.000862630989997486
-1.2875,-0.00084895679318274
-1.28625,-0.000808379514462524
-1.285,-0.000748215627396367
-1.28375,-0.000678927340451425
-1.2825,-0.000611927920447188
-1.28125,-0.000557128039573196
-1.28,-0.00052080147057452
-1.27875,-0.000504303241367815
-1.2775,-0.000503902672787828
-1.27625,-0.000511711570263481
-1.275,-0.000517519980257912
-1.27375,-0.000511202411029892
-1.2725,-0.000485157636807914
-1.27125,-0.000436158135522829
-1.27,-0.000366176412599437
-1.26875,-0.000282093095837736
-1.2675,-0.000194417951169631
-1.26625,-0.000115247157807264
-1.265,-5.58084551316926e-05
-1.26375,-2.41304064005168e-05
-1.2625,-2.34114035291095e-05
-1.26125,-5.14511235160631e-05
-1.26,-0.00010120650201533
-1.25875,-0.000162335060461335
-1.2575,-0.000223453351266626
-1.25625,-0.000274647618783678
-1.255,-0.00030961681834355
-1.25375,-0.000326918535437
-1.2525,-0.00033010334518024
-1.25125,-0.000326804144119646
-1.25,-0.000326972194706329
-1.24875,-0.000340555533387817
-1.2475,-0.000375097123130929
-1.24625,-0.000433843183806163
-1.245,-0.00051481956261564
-1.24375,-0.000611037006821307
-1.2425,-0.00071174482468641
-1.24125,-0.000804509762014543
-1.24,-0.000877726059830681
-1.23875,-0.000922970075276781
-1.2375,-0.00093660660419995
-1.23625,-0.000920315536579114
-1.235,-0.000880526512633942
-1.23375,-0.00082692226636202
-1.2325,-0.000770262438684126
-1.23125,-0.000719940259786251
-1.23,-0.000681847630278341
-1.22875,-0.000657079315501073
-1.2275,-0.000641738740383887
-1.22625,-0.000627828333292132
-1.225,-0.000605043072614397
-1.22375,-0.000563141374310843
-1.2225,-0.000494369008663119
-1.22125,-0.000395317154858725
-1.22,-0.000267775887921831
-1.21875,-0.000118477775172221
-1.2175,4.21442426250202e-05
-1.21625,0.000201964692521257
-1.215,0.000349590344875609
-1.21375,0.000476669096362111
-1.2125,0.000579510153517502
-1.21125,0.000659654143724683
-1.21,0.000723331338909507
-1.20875,0.000779944391802775
-1.2075,0.00083984499687343
-1.20625,0.000911862084993957
-1.205,0.00100119586223921
-1.20375,0.00110820396207483
-1.2025,0.0012282920504993
-1.20125,0.00135283889478432
-1.2,0.00147096181359434
-1.19875,0.00157182959702918
-1.1975,0.00164705149006524
-1.19625,0.00169255566535221
-1.195,0.00170950009849547
-1.19375,0.00170405608601137
-1.1925,0.00168614824812539
-1.19125,0.00166737829681551
-1.19,0.00165852829319923
-1.18875,0.00166722728032175
-1.1875,0.00169636905745686
-1.18625,0.0017436084974052
-1.185,0.00180194652486559
-1.18375,0.0018612421195204
-1.1825,0.00191040066294966
-1.18125,0.00193982857716906
-1.18,0.00194357904684086
-1.17875,0.00192065560547959
-1.1775,0.00187520910756894
-1.17625,0.00181564605039589
-1.175,0.0017528316566075
-1.17375,0.00169771377431832
-1.1725,0.00165888976024763
-1.17125,0.00164073338600969
-1.17,0.00164252163501193
-1.16875,0.0016586705024439
-1.1675,0.0016799591882056
-1.16625,0.00169552349796283
-1.165,0.0016952673344042
-1.16375,0.00167215551571653
-1.1625,0.00162381102393324
-1.16125,0.00155305212034933
-1.16,0.00146730715521366
-1.15875,0.00137704747776002
-1.1575,0.0012935154517802
-1.15625,0.00122621391481514
-1.155,0.00118077776814213
-1.15375,0.00115775505802821
-1.1525,0.00115250705723454
-1.15125,0.00115615483217153
-1.15,0.00115737703180982
-1.14875,0.00114476407787614
-1.1475,0.00110925439136487
-1.14625,0.00104606342101074
-1.145,0.000955645936776599
-1.14375,0.000843529180900471
-1.1425,0.000719098659539724
-1.14125,0.000593561976489313
-1.14,0.000477483291671027
-1.13875,0.000378468993693162
-1.1375,0.000299591443107279
-1.13625,0.00023887950326819
-1.135,0.000189887764988
-1.13375,0.000143184693919931
-1.1325,8.85111270422897e-05
-1.13125,1.72017419429284e-05
-1.13,-7.57023744010858e-05
-1.12875,-0.000190181341778239
-1.1275,-0.000321070047893212
-1.12625,-0.000458982104772115
-1.125,-0.000592140657318185
-1.12375,-0.000708786178999817
-1.1225,-0.0007996338201248
-1.12125,-0.000859760267897985
-1.12,-0.000889481576913201
-1.11875,-0.000894117226054754
-1.1175,-0.000882765229131424
-1.11625,-0.000866308517683332
-1.115,-0.000855000843240164
-1.11375,-0.00085616465385737
-1.1125,-0.000872575122931473
-1.11125,-0.00090189495935689
-1.11,-0.000937224709291329
-1.10875,-0.00096863236157314
-1.1075,-0.000985390918347891
-1.10625,-0.000978464158440027
-1.105,-0.00094262403397167
-1.10375,-0.000877670453557847
-1.1025,-0.000788538359354935
-1.10125,-0.000684361548891587
-1.1,-0.00057668948037804
-1.09875,-0.000477153077449205
-1.0975,-0.000395053248048466
-1.09625,-0.000335459894731992
-1.095,-0.000298278693095819
-1.09375,-0.000278444349252999
-1.0925,-0.000267155017843641
-1.09125,-0.000253921101284839
-1.09,-0.000229035679059124
-1.08875,-0.000185884877460884
-1.0875,-0.000122509859524076
-1.08625,-4.20918154018795e-05
-1.085,4.76504393241369e-05
-1.08375,0.000135988335857477
-1.0825,0.000211384799260778
-1.08125,0.000263956342685255
-1.08,0.000287619326259758
-1.07875,0.000281386760357625
-1.0775,0.000249549853249928
-1.07625,0.000200760579012358
-1.075,0.000146199728397664
-1.07375,9.7161805736004e-05
-1.0725,6.25862717119056e-05
-1.07125,4.71573184369848e-05
-1.07,5.04130165351613e-05
-1.06875,6.69714221532394e-05
-1.0675,8.77514855029338e-05
-1.06625,0.000101969839635824
-1.065,9.95651465357795e-05
-1.06375,7.35164161149984e-05
-1.0625,2.14784604010397e-05
-1.06125,-5.36344125135539e-05
-1.06,-0.000144186008014279
-1.05875,-0.000239345327680011
-1.0575,-0.000327335182302496
-1.05625,-0.00039794394979748
-1.055,-0.000444681531555607
-1.05375,-0.000466044083920785
-1.0525,-0.000465665155833909
-1.05125,-0.000451416916943537
-1.05,-0.000433654155223955
-1.04875,-0.000422895449096094
-1.0475,-0.000427415388344779
-1.04625,-0.000451337772152671
-1.045,-0.000493691425480026
-1.04375,-0.000548593190365355
-1.0425,-0.000606477935792752
-1.04125,-0.000656150883063591
-1.04,-0.000687268314019569
-1.03875,-0.000692662592305888
-1.0375,-0.000669921100813398
-1.03625,-0.000621888772742071
-1.035,-0.000556082247557057
-1.03375,-0.000483175480025793
-1.0325,-0.000414805406584576
-1.03125,-0.000361106259944846
-1.03,-0.000328547539039676
-1.02875,-0.000318610956940964
-1.0275,-0.000327576055964881
-1.02625,-0.000347402942009998
-1.025,-0.000367532213938745
-1.02375,-0.000377274445301554
-1.0225,-0.00036826247044267
-1.02125,-0.000336345125544314
-1.02,-0.000282479819270406
-1.01875,-0.000212513458541075
-1.0175,-0.000135971580766638
-1.01625,-6.40727346068894e-05
-1.015,-7.31443051593849e-06
-1.01375,2.68377124422858e-05
-1.0125,3.55820561980135e-05
-1.01125,2.13653133632514e-05
-1.01,-8.65182490418392e-06
-1.00875,-4.41180795383129e-05
-1.0075,-7.37371995884793e-05
-1.00625,-8.7776901212397e-05
-1.005,-8.02219178947232e-05
-1.00375,-5.00374842200968e-05
-1.0025,-1.32257760001945e-06
-1.00125,5.75846162624384e-05
-1,0.000115859582401733
-0.99875,0.000162510936115808
-0.9975,0.00018879381996849
-0.99625,0.000190127522530585
-0.995,0.000167055023664184
-0.99375,0.000125078621130132
-0.9925,7.34499444055486e-05
-0.99125,2.31360031097663e-05
-0.99,-1.56489044742233e-05
-0.98875,-3.57642864672366e-05
-0.9875,-3.472685186804e-05
-0.98625,-1.52231319978922e-05
-0.985,1.54632038832222e-05
-0.98375,4.69506953237372e-05
-0.9825,6.79385773204541e-05
-0.98125,6.86582315535829e-05
-0.98,4.30257117687863e-05
-0.97875,-1.00382271475806e-05
-0.9775,-8.63908480635504e-05
-0.97625,-0.00017754302724756
-0.975,-0.000272449552215876
-0.97375,-0.000359888693293853
-0.9725,-0.000430906574612393
-0.97125,-0.000480706046614645
-0.97,-0.000509537574440241
-0.96875,-0.000522482240406087
-0.9675,-0.000528248026274571
-0.96625,-0.000537197666350889
-0.965,-0.000558954847994619
-0.96375,-0.00060012019469306
-0.9625,-0.000662671588953613
-0.96125,-0.000743414516191511
-0.96,-0.000834547420656885
-0.95875,-0.00092520609963978
-0.9575,-0.0010037176045659
-0.95625,-0.00106010654618616
-0.955,-0.00108823837364806
-0.95375,-0.00108706915919775
-0.9525,-0.00106078368715265
-0.95125,-0.00101788636856151
-0.95,-0.000969435174068604
-0.94875,-0.000926709099281343
-0.9475,-0.000898779423862328
-0.94625,-0.000890572880784365
-0.945,-0.000901889890646384
-0.94375,-0.000927547268622937
-0.9425,-0.000958571695875638
-0.94125,-0.000984225795986189
-0.94,-0.000994478338561857
-0.93875,-0.000982336167360598
-0.9375,-0.000945442953419398
-0.93625,-0.000886606171987179
-0.935,-0.00081323417565288
-0.93375,-0.000735841622497431
-0.9325,-0.000665871857287706
-0.93125,-0.000613243286388542
-0.93,-0.000584192692256446
-0.92875,-0.000579951181538325
-0.9275,-0.000596525416062408
-0.92625,-0.000625575496059356
-0.925,-0.000656211645752309
-0.92375,-0.000677384958084938
-0.9225,-0.000680348453943651
-0.92125,-0.000660566625079421
-0.92,-0.000618626067665917
-0.91875,-0.00056003133546551
-0.9175,-0.000494003416396732
-0.91625,-0.000431498370582227
-0.915,-0.000382793337323496
-0.91375,-0.000355171455493762
-0.9125,-0.000351281564265565
-0.91125,-0.00036854319428759
-0.91,-0.000399669003997354
-0.90875,-0.000434174771115878
-0.9075,-0.000460611226271163
-0.90625,-0.000469062902955857
-0.905,-0.000453298518474983
-0.90375,-0.00041203883917761
-0.9025,-0.0003491186390247
-0.90125,-0.000272603815522805
-0.9,-0.000193052843740625
-0.89875,-0.000121212918795154
-0.8975,-6.56210089444603e-05
-0.89625,-3.06985716364185e-05
-0.895,-1.58037535012792e-05
-0.89375,-1.540941842531e-05
-0.8925,-2.0329858203788e-05
-0.89125,-1.97723680422794e-05
-0.89,-3.81836017529473e-06
-0.88875,3.42522885323141e-05
-0.8875,9.63850498432312e-05
-0.88625,0.000179252318203763
-0.885,0.000274843538470433
-0.88375,0.000371983936002638
-0.8825,0.000458534963541804
-0.88125,0.000523870869527617
-0.88,0.000561058575190243
-0.87875,0.000568205012400176
-0.8775,0.000548699378738002
-0.87625,0.000510358499279779
-0.875,0.000463651510007337
-0.87375,0.000419326325844705
-0.8725,0.000385959978877633
-0.87125,0.000368054728272039
-0.87,0.000365128892135845
-0.86875,0.000371919800438581
-0.8675,0.000379582326632043
-0.86625,0.000377666452601781
-0.865,0.000356527707497519
-0.86375,0.00030963853186784
-0.8625,0.000235222772042123
-0.86125,0.000136841502130442
-0.86,2.28583290907153e-05
-0.85875,-9.50855959012021e-05
-0.8575,-0.000204321810760303
-0.85625,-0.000293675804604588
-0.855,-0.000355643485775969
-0.85375,-0.000387688142825588
-0.8525,-0.000392434369707518
-0.85125,-0.000376820072271669
-0.85,-0.000350394369270917
-0.84875,-0.000323047339520154
-0.8475,-0.000302634709131009
-0.84625,-0.000293078986416724
-0.845,-0.00029340635818362
-0.84375,-0.000297887344863745
-0.8425,-0.000297208591832245
-0.84125,-0.000280462321693372
-0.84,-0.00023757340334446
-0.83875,-0.000161591821851353
-0.8375,-5.02642416651201e-05
-0.83625,9.34493307151036e-05
-0.835,0.000261931687490954
-0.83375,0.000444382226010153
-0.8325,0.00062896477444116
-0.83125,0.000805228298620272
-0.83,0.000966233517252941
-0.82875,0.00110985377774369
-0.8275,0.00123897822107981
-0.82625,0.00136062427948256
-0.825,0.00148413659698839
-0.82375,0.00161879979474712
-0.8225,0.00177139364819831
-0.82125,0.00194431451266749
-0.82,0.0021347073230389
-0.81875,0.00233471945191354
-0.8175,0.00253275686624901
-0.81625,0.00271552552356325
-0.815,0.00287051204812891
-0.81375,0.00298837189410696
-0.8125,0.00306464575624011
-0.81125,0.00310042758660805
-0.81,0.00310190489389457
-0.80875,0.00307889473399453
-0.8075,0.00304263632495359
-0.80625,0.00300329185755612
-0.805,0.00296776940739884
-0.80375,0.00293840407825968
-0.8025,0.00291272755211489
-0.80125,0.00288427376966758
-0.8,0.00284423894310698
-0.79875,0.00278371154761276
-0.7975,0.00269600893402855
-0.79625,0.00257853956843898
-0.795,0.00243373249151845
-0.79375,0.00226886628222464
-0.7925,0.00209487006472462
-0.79125,0.00192430833185115
-0.79,0.00176892505831679
-0.78875,0.00163731556706077
-0.7875,0.00153331464338755
-0.78625,0.00145544224640609
-0.785,0.00139743161526006
-0.78375,0.00134968750621305
-0.7825,0.00130143082448115
-0.78125,0.00124312731163035
-0.78,0.00116863118066873
-0.77875,0.00107650955572677
-0.7775,0.000970274575477327
-0.77625,0.000857530771344033
-0.775,0.00074821481611154
-0.77375,0.000652251253184464
-0.7725,0.000577145234142376
-0.77125,0.000526129382235296
-0.77,0.000497306723218134
-0.76875,0.000483901655490329
-0.7675,0.000475500623478219
-0.76625,0.00046006681204093
-0.765,0.000426384686890087
-0.76375,0.000366404081352165
-0.7625,0.000276905731369148
-0.76125,0.000160114097955415
-0.76,2.31831077002625e-05
-0.75875,-0.000123316085988801
-0.7575,-0.000267640167470347
-0.75625,-0.000399396340824103
-0.755,-0.000511724225041454
-0.75375,-0.000602598093685714
-0.7525,-0.000675022361911562
-0.75125,-0.0007361806966287
-0.75,-0.000795728019485602
-0.74875,-0.000863513023444848
-0.7475,-0.000947196819424882
-0.74625,-0.00105035419077788
-0.745,-0.00117152227522772
-0.74375,-0.00130436720653917
-0.7425,-0.00143889469623697
-0.74125,-0.00156348638121603
-0.74,-0.00166737380379581
-0.73875,-0.00174296711517417
-0.7375,-0.00178744318782597
-0.73625,-0.00180325674918915
-0.735,-0.00179756060479174
-0.73375,-0.00178069571721581
-0.7325,-0.00176399959713575
-0.73125,-0.00175734059652876
-0.73,-0.00176695475638921
-0.72875,-0.00179412481830307
-0.7275,-0.0018349733945235
-0.72625,-0.0018813568394516
-0.725,-0.00192267759409776
-0.72375,-0.00194828792420693
-0.7225,-0.00194995822977438
-0.72125,-0.00192378372313236
-0.72,-0.00187108048361087
-0.71875,-0.00179815827020914
-0.7175,-0.00171509186658813
-0.71625,-0.00163370969565847
-0.715,-0.0015651463844298
-0.71375,-0.00151749383931873
-0.7125,-0.00149413374772028
-0.71125,-0.00149312729744674
-0.71,-0.00150773452983636
-0.70875,-0.00152793163473716
-0.7075,-0.00154265924714421
-0.70625,-0.00154234428476274
-0.705,-0.00152107365552949
-0.70375,-0.00147787868615724
-0.7025,-0.00141690308795614
-0.70125,-0.00134651528451257
-0.7,-0.00127755489308892
-0.69875,-0.00122100414128182
-0.6975,-0.00118555644860219
-0.69625,-0.00117567594663377
-0.695,-0.00119061820439148
-0.69375,-0.00122458526926081
-0.6925,-0.00126794016883742
-0.69125,-0.00130925925852814
-0.69,-0.00133783015389789
-0.68875,-0.00134600864503764
-0.6875,-0.0013308358626626
-0.68625,-0.00129457577328932
-0.685,-0.00124415597442171
-0.68375,-0.0011896709301556
-0.6825,-0.00114219578674998
-0.68125,-0.0011113179938238
-0.68,-0.00110296256946469
-0.67875,-0.00111805158067276
-0.6775,-0.00115227463803466
-0.67625,-0.00119696327965635
-0.675,-0.00124089104778518
-0.67375,-0.0012726740628606
-0.6725,-0.00128324659353449
-0.67125,-0.00126778449551018
-0.67,-0.00122662307247297
-0.66875,-0.00116505240602899
-0.6675,-0.00109211160295717
-0.66625,-0.00101860301112481
-0.665,-0.000954674440136908
-0.66375,-0.000907503691123495
-0.6625,-0.000879668260786967
-0.66125,-0.000868576310381083
-0.66,-0.000867029721023067
-0.65875,-0.000864782610504481
-0.6575,-0.000850820249520851
-0.65625,-0.000815891510602332
-0.655,-0.000754667980322768
-0.65375,-0.000666992453369704
-0.6525,-0.000557999855416782
-0.65125,-0.000437181013986195
-0.65,-0.000316584694910536
-0.64875,-0.000208451153689059
-0.6475,-0.000122749872612542
-0.64625,-6.52137695695821e-05
-0.645,-3.63369065012803e-05
-0.64375,-3.15051115676086e-05
-0.6425,-4.21825162282572e-05
-0.64125,-5.79334114076602e-05
-0.64,-6.88912028825052e-05
-0.63875,-6.80923942987955e-05
-0.6375,-5.30791161676593e-05
-0.63625,-2.64301773103747e-05
-0.635,4.79707858744956e-06
-0.63375,3.05556019521404e-05
-0.6325,3.99811387456227e-05
-0.63125,2.38427984982123e-05
-0.63,-2.33025930256803e-05
-0.62875,-0.000101791033975731
-0.6275,-0.000206640465464057
-0.62625,-0.00032843780214124
-0.625,-0.000455143847134569
-0.62375,-0.000574492917329918
-0.6225,-0.000676468813492669
-0.62125,-0.000755239937017046
-0.62,-0.000810106683333722
-0.61875,-0.000845343467113981
-0.6175,-0.000869051082016598
-0.61625,-0.000891232817112292
-0.615,-0.000921431803139589
-0.61375,-0.000966449586449219
-0.6125,-0.00102871583056984
-0.61125,-0.00110568053151819
-0.61,-0.00119030447238386
-0.60875,-0.00127252245787042
-0.6075,-0.00134142081748621
-0.60625,-0.00138768544257951
-0.605,-0.00140571635401005
-0.60375,-0.00139488018430673
-0.6025,-0.00135967426171656
-0.60125,-0.00130885647559203
-0.6,-0.00125372292929174
-0.59875,-0.00120581420620494
-0.5975,-0.00117450749183867
-0.59625,-0.00116507301378266
-0.595,-0.00117765803836757
-0.59375,-0.00120737495107839
-0.5925,-0.00124542789994313
-0.59125,-0.00128106926169226
-0.59,-0.00130401216899686
-0.58875,-0.00130673440178071
-0.5875,-0.00128608964252798
-0.58625,-0.00124388584981547
-0.585,-0.00118640272618668
-0.58375,-0.00112299483009107
-0.5825,-0.00106401611035469
-0.58125,-0.00101845720583201
-0.58,-0.000991853207692592
-0.57875,-0.000984989771758964
-0.5775,-0.000993682081724216
-0.57625,-0.0010096252317373
-0.575,-0.00102214625898931
-0.57375,-0.00102054172317129
-0.5725,-0.000996487800955308
-0.57125,-0.000945912738043992
-0.57,-0.000869892763365586
-0.56875,-0.000774457896284928
-0.5675,-0.000669421322940139
-0.56625,-0.000566439970799852
-0.565,-0.000476636451314639
-0.56375,-0.000408294456814283
-0.5625,-0.000365191644314485
-0.56125,-0.000345941336045058
-0.56,-0.000344424937166201
-0.55875,-0.000351198772501114
-0.5575,-0.000355626765649184
-0.55625,-0.000348305628721367
-0.555,-0.000323186493438474
-0.55375,-0.000278864978623765
-0.5525,-0.000218806589001595
-0.55125,-0.00015055243908378
-0.55,-8.40793019419455e-05
-0.54875,-2.9587409103991e-05
-0.5475,4.83483958106752e-06
-0.54625,1.50981488620334e-05
-0.545,2.09204314692734e-06
-0.54375,-2.84203185763182e-05
-0.5425,-6.69301866779341e-05
-0.54125,-0.000102129759750945
-0.54,-0.000123308955369538
-0.53875,-0.000122644405477934
-0.5375,-9.68018409297073e-05
-0.53625,-4.75125447268755e-05
-0.535,1.8906274055972e-05
-0.53375,9.29432641328441e-05
-0.5325,0.000163964467483505
-0.53125,0.000222578574082483
-0.53,0.000262743612712716
-0.52875,0.000283088882105365
-0.5275,0.000287174469811734
-0.52625,0.000282684336008965
-0.525,0.000279716957118361
-0.52375,0.000288483130510069
-0.5225,0.000316917530280249
-0.52125,0.00036881128521536
-0.52,0.000442907127136352
-0.51875,0.000533076316501844
-0.5175,0.000629468146585929
-0.51625,0.000720426596428653
-0.515,0.000794846191485701
-0.51375,0.000844458835982036
-0.5125,0.000865491224016244
-0.51125,0.000859322460292821
-0.51,0.000832058351447077
-0.50875,0.000793135941400614
-0.5075,0.000753203932408218
-0.50625,0.000721709337532449
-0.505,0.000704783556043493
-0.50375,0.000703953744599462
-0.5025,0.000715911999913747
-0.50125,0.000733298313747661
-0.5,0.000746325084156921
-0.49875,0.000744972053325769
-0.4975,0.000721305325146277
-0.49625,0.000671351729811006
-0.495,0.000596069500960497
-0.49375,0.000501236961324204
-0.4925,0.000396321059800062
-0.49125,0.00029253196412253
-0.49,0.000200434656615998
-0.48875,0.000127676281214436
-0.4875,7.74048823699113e-05
-0.48625,4.7713316311726e-05
-0.485,3.21347360454192e-05
-0.48375,2.10456838968755e-05
-0.4825,3.74652719441607e-06
-0.48125,-2.91643804341e-05
-0.48,-8.36732849629591e-05
-0.47875,-0.000161015276220249
-0.4775,-0.00025739628791711
-0.47625,-0.000364775368052364
-0.475,-0.000472544389211838
-0.47375,-0.000569801819658905
-0.4725,-0.000647723407848735
-0.47125,-0.000701429510281139
-0.47,-0.000730908559371331
-0.46875,-0.000740874610122076
-0.4675,-0.000739664818631
-0.46625,-0.000737378904159945
-0.465,-0.00074358422838117
-0.46375,-0.000765089946364349
-0.4625,-0.000804346458737271
-0.46125,-0.000858837045458738
-0.46,-0.000921541986672938
-0.45875,-0.000982358917727328
-0.4575,-0.00103023251039859
-0.45625,-0.00105556406419874
-0.455,-0.00105231109104176
-0.45375,-0.0010192558378092
-0.4525,-0.000960214916353502
-0.45125,-0.000883236643493582
-0.45,-0.000798957956748205
-0.44875,-0.000718390053078777
-0.4475,-0.000650577324844799
-0.44625,-0.000600697094045383
-0.445,-0.00056905762747305
-0.44375,-0.000551171199958766
-0.4425,-0.000538841088524442
-0.44125,-0.000522061450634181
-0.44,-0.000491368189668138
-0.43875,-0.000440090005243169
-0.4375,-0.000365924794499881
-0.43625,-0.000271501706240762
-0.435,-0.000163896349208813
-0.43375,-5.32408383110145e-05
-0.4325,4.93413447436457e-05
-0.43125,0.000134093130123467
-0.43,0.000194725890622746
-0.42875,0.000229742791707549
-0.4275,0.000242708353077294
-0.42625,0.000241461464419853
-0.425,0.000236433684469708
-0.42375,0.000238374518540849
-0.4225,0.000255978054140656
-0.42125,0.00029400880386077
-0.42,0.000352367491874986
-0.41875,0.00042622109304254
-0.4175,0.000507093063626943
-0.41625,0.000584712887120051
-0.415,0.000649303371038906
-0.41375,0.000693804803471906
-0.4125,0.000715480644354258
-0.41125,0.000716536237341433
-0.41,0.000703667335394665
-0.40875,0.000686652430821532
-0.4075,0.000676235285067244
-0.40625,0.000681728067555126
-0.405,0.000708926399642141
-0.40375,0.000758858164480091
-0.4025,0.000827593423663721
-0.40125,0.00090706633336182
-0.4,0.000986733229029954
-0.39875,0.00105579477299972
-0.3975,0.00110553747049955
-0.39625,0.00113122865761992
-0.395,0.00113310842223342
-0.39375,0.00111630126164915
-0.3925,0.00108970799361791
-0.39125,0.00106407955733812
-0.39,0.00104963694847062
-0.38875,0.00105379180720646
-0.3875,0.00107954583854213
-0.38625,0.001124909757113
-0.385,0.00118337298911318
-0.38375,0.0012452808425235
-0.3825,0.0012998889072744
-0.38125,0.00133771362685735
-0.38,0.00135263262460778
-0.37875,0.00134321224026128
-0.3775,0.00131298542198454
-0.37625,0.00126967461086003
-0.375,0.00122351909847296
-0.37375,0.00118500677970955
-0.3725,0.0011625041181047
-0.37125,0.0011603836149465
-0.37,0.0011780924830196
-0.36875,0.00121028996235121
-0.3675,0.00124795186615891
-0.36625,0.00128024324552831
-0.365,0.00129683728751666
-0.36375,0.00129017642330989
-0.3625,0.00125711532565647
-0.36125,0.00119957216607231
-0.36,0.00112410111618265
-0.35875,0.00104049773523335
-0.3575,0.000959681551788621
-0.35625,0.000891284421056501
-0.355,0.000841536934004391
-0.35375,0.000811980042651802
-0.3525,0.000799236405425465
-0.35125,0.000795797870015079
-0.35,0.000791656519618371
-0.34875,0.000776509288599976
-0.3475,0.00074209210943306
-0.34625,0.000684075788413432
-0.345,0.000603063645491645
-0.34375,0.000504511252175191
-0.3425,0.000397627594855167
-0.34125,0.000293457326650038
-0.34,0.00020250456381843
-0.33875,0.000132449218678018
-0.3375,8.65341310409425e-05
-0.33625,6.29680246626215e-05
-0.335,5.53811641748419e-05
-0.33375,5.41946714218694e-05
-0.3325,4.86757199720965e-05
-0.33125,2.92982179728252e-05
-0.33,-1.01387153695965e-05
-0.32875,-7.11594519941919e-05
-0.3275,-0.000150307293031621
-0.32625,-0.000239895540885661
-0.325,-0.000329660049376257
-0.32375,-0.00040901933001953
-0.3225,-0.000469451648884788
-0.32125,-0.00050638777745497
-0.32,-0.000520169706520967
-0.31875,-0.00051594169157135
-0.3175,-0.000502570790627358
-0.31625,-0.00049079353630657
-0.315,-0.000490909776915625
-0.31375,-0.000510528794989899
-0.3125,-0.000552930087697958
-0.31125,-0.000616413171156808
-0.31,-0.000694721552423797
-0.30875,-0.000778426584477864
-0.3075,-0.000857027069508635
-0.30625,-0.000921339819139274
-0.305,-0.000965592962994464
-0.30375,-0.000988696166360905
-0.3025,-0.000994452399782097
-0.30125,-0.000990754047977566
-0.3,-0.000987936237023597
-0.29875,-0.000996558386712623
-0.2975,-0.00102505911587891
-0.29625,-0.00107785307622572
-0.295,-0.00115432998021058
-0.29375,-0.00124893547965536
-0.2925,-0.00135227440859141
-0.29125,-0.0014530361793572
-0.29,-0.00154038053963009
-0.28875,-0.0016062307303317
-0.2875,-0.00164689429334566
-0.28625,-0.00166366684133702
-0.285,-0.00166238407488153
-0.28375,-0.0016520633118624
-0.2825,-0.00164286307695235
-0.28125,-0.00164374076085584
-0.28,-0.00166035570325611
-0.27875,-0.00169374307856476
-0.2775,-0.00174003873014255
-0.27625,-0.00179126214482956
-0.275,-0.00183699661630157
-0.27375,-0.0018666615015155
-0.2725,-0.00187187650053978
-0.27125,-0.00184831611280786
-0.27,-0.00179661425656274
-0.26875,-0.00172219907613448
-0.2675,-0.00163416604652556
-0.26625,-0.00154339211167843
-0.265,-0.00146021417091341
-0.26375,-0.00139217732142314
-0.2625,-0.00134241499585667
-0.26125,-0.00130903496555695
-0.26,-0.00128559541671309
-0.25875,-0.00126255326092705
-0.2575,-0.00122943015147644
-0.25625,-0.00117725385899119
-0.255,-0.00110067179644824
-0.25375,-0.00099920987425564
-0.2525,-0.000877453338021645
-0.25125,-0.000744205994551656
-0.25,-0.0006108083754234
-0.24875,-0.000488888455199507
-0.2475,-0.00038799096001716
-0.24625,-0.000313654814733776
-0.245,-0.000266400206749978
-0.24375,-0.000241805357029343
-0.2425,-0.000231611750523312
-0.24125,-0.000225652640465791
-0.24,-0.000214234863648292
-0.23875,-0.000190412922304722
-0.2375,-0.0001515731751786
-0.23625,-9.99876944647951e-05
-0.235,-4.23089688849221e-05
-0.23375,1.18490652053932e-05
-0.2325,5.2010971148096e-05
-0.23125,6.92345713766118e-05
-0.23,5.82457851604503e-05
-0.22875,1.87822660713972e-05
-0.2275,-4.41366546710145e-05
-0.22625,-0.000121020338645526
-0.225,-0.00019963657266061
-0.22375,-0.00026735827180771
-0.2225,-0.000313627851357449
-0.22125,-0.000331928580423515
-0.22,-0.000320804824171601
-0.21875,-0.000283793881356192
-0.2175,-0.000228369539311173
-0.21625,-0.000164100758165502
-0.215,-0.000100352295707297
-0.21375,-4.40357897643457e-05
-0.2125,2.02322439885469e-06
-0.21125,3.97249175283428e-05
-0.21,7.52553364409567e-05
-0.20875,0.000117683808199135
-0.2075,0.000176846754969099
-0.20625,0.000260948897586991
-0.205,0.000374475311723977
-0.20375,0.000516942658094163
-0.2025,0.00068272408069535
-0.20125,0.000861902191242546
-0.2,0.00104197474134491
-0.19875,0.00121013978338237
-0.1975,0.00135571090841325
-0.19625,0.00147208670176239
-0.195,0.00155780725790446
-0.19375,0.00161651562400067
-0.1925,0.00165588501339119
-0.19125,0.00168571340984655
-0.19,0.0017155474372362
-0.18875,0.00175238909478228
-0.1875,0.00179906755807988
-0.18625,0.0018536243349901
-0.185,0.00190975051174646
-0.18375,0.00195813853407173
-0.1825,0.00198852193084943
-0.18125,0.00199202181060467
-0.18,0.00196324873582257
-0.17875,0.00190163030032738
-0.1775,0.00181168266140568
-0.17625,0.00170221945153392
-0.175,0.00158465764365249
-0.17375,0.00147071947585298
-0.1725,0.00137002477312869
-0.17125,0.00128817881351608
-0.17,0.00122580913675886
-0.16875,0.0011786856006479
-0.1675,0.00113882250755516
-0.16625,0.00109635969730242
-0.165,0.00104189610233372
-0.16375,0.000968766671895199
-0.1625,0.000874695803066943
-0.16125,0.000762447243219592
-0.16,0.000639380217552244
-0.15875,0.000516025133388632
-0.1575,0.000403930230093573
-0.15625,0.000313218826249846
-0.155,0.000250459752588638
