#Digilent WaveForms Oscilloscope Acquisition
#Device Name: Discovery
#Serial Number: SN:210244566833
#Date Time: 2019-07-09 14:04:06.474
#Sample rate: 800Hz
#Samples: 8192
#Trigger: Source: Channel 1 Type: Edge Condition: Rising Level: 0 V Hyst.: Auto HoldOff: 0 s
#Channel 1: Range: 500 mV/div Offset: 0 V Attenuation: 1 X
#Channel 2: Range: 500 mV/div Offset: 0 V Attenuation: 1 X
#Power Supplies: ON
#Positive Supply: ON
#Negative Supply: ON

Time (s),Channel 1 (V),Channel 2 (V)
-5.12,0.0003182858946045794,-0.000223684852456052
-5.11875,0.0003182858946045794,0.0007816549356509206
-5.1175,-1.627970538396967e-05,0.001451881461056331
-5.11625,-1.627970538396967e-05,0.001786994723758807
-5.115,-1.627970538396967e-05,0.001786994723758807
-5.11375,-1.627970538396967e-05,0.001451881461056026
-5.1125,-1.627970538396967e-05,0.0007816549356513777
-5.11125,-1.627970538396967e-05,-0.000223684852456052
-5.11,-1.627970538396967e-05,-0.0008939113778607004
-5.10875,0.0003182858946044272,-0.001564137903266111
-5.1075,-1.627970538396967e-05,-0.001899251165968435
-5.10625,-1.627970538396967e-05,-0.001564137903265958
-5.105,-1.627970538396967e-05,-0.001229024640563634
-5.10375,-1.627970538396967e-05,-0.0005587981151585285
-5.1025,-1.627970538396967e-05,0.0004465416729489012
-5.10125,-1.627970538396967e-05,0.001116768198353854
-5.1,-1.627970538396967e-05,0.00178699472375896
-5.09875,-1.627970538396967e-05,0.002122107986461284
-5.0975,-1.627970538396967e-05,0.001786994723758807
-5.09625,-1.627970538396967e-05,0.001116768198354159
-5.095,-1.627970538396967e-05,0.0001114284102464246
-5.09375,-1.627970538396967e-05,-0.0005587981151585285
-5.0925,-1.627970538396967e-05,-0.001229024640563482
-5.09125,0.0003182858946045794,-0.001899251165968435
-5.09,0.0003182858946045794,-0.001899251165968435
-5.08875,-1.627970538396967e-05,-0.001564137903265958
-5.0875,0.0003182858946044272,-0.0005587981151589858
-5.08625,-1.627970538396967e-05,0.0001114284102464246
-5.085,-1.627970538396967e-05,0.001116768198353854
-5.08375,-1.627970538396967e-05,0.001786994723758807
-5.0825,-1.627970538396967e-05,0.001786994723758807
-5.08125,-1.627970538396967e-05,0.001786994723758807
-5.08,-1.627970538396967e-05,0.001451881461056331
-5.07875,-1.627970538396967e-05,0.0004465416729493583
-5.0775,-1.627970538381753e-05,-0.0002236848524565091
-5.07625,0.0003182858946045794,-0.001229024640563482
-5.075,-1.627970538396967e-05,-0.001564137903265958
-5.07375,0.0003182858946044272,-0.001899251165968283
-5.0725,-1.627970538396967e-05,-0.001564137903265958
-5.07125,-1.627970538396967e-05,-0.0008939113778610051
-5.07,-1.627970538396967e-05,-0.000223684852456052
-5.06875,-1.627970538396967e-05,0.0007816549356516824
-5.0675,-1.627970538396967e-05,0.001451881461056331
-5.06625,-1.627970538396967e-05,0.001786994723758807
-5.065,-1.627970538396967e-05,0.001786994723758807
-5.06375,-1.627970538396967e-05,0.001786994723758807
-5.0625,-1.627970538396967e-05,0.0007816549356513777
-5.06125,-1.627970538396967e-05,0.0001114284102464246
-5.06,0.0003182858946044272,-0.0008939113778613099
-5.05875,-1.627970538396967e-05,-0.001564137903265958
-5.0575,-1.627970538396967e-05,-0.001899251165968435
-5.05625,-1.627970538396967e-05,-0.001564137903266111
-5.055,-1.627970538396967e-05,-0.001229024640563482
-5.05375,-1.627970538396967e-05,-0.000223684852456052
-5.0525,-1.627970538396967e-05,0.0004465416729489012
-5.05125,-1.627970538396967e-05,0.001451881461056483
-5.05,-1.627970538396967e-05,0.001786994723758807
-5.04875,-1.627970538396967e-05,0.002122107986461284
-5.0475,-1.627970538396967e-05,0.00178699472375896
-5.04625,-1.627970538396967e-05,0.001116768198353549
-5.045,-1.627970538396967e-05,0.0004465416729489012
-5.04375,-1.627970538396967e-05,-0.0005587981151585285
-5.0425,-1.627970538396967e-05,-0.001229024640563177
-5.04125,-1.627970538396967e-05,-0.001899251165968435
-5.04,-1.627970538396967e-05,-0.001564137903265958
-5.03875,-1.627970538396967e-05,-0.001564137903265958
-5.0375,-1.627970538396967e-05,-0.0005587981151582238
-5.03625,-1.627970538396967e-05,0.0001114284102464246
-5.035,-1.627970538396967e-05,0.001116768198353854
-5.03375,-1.627970538396967e-05,0.001786994723758502
-5.0325,-1.627970538396967e-05,0.002122107986461284
-5.03125,-1.627970538396967e-05,0.001786994723758807
-5.03,-1.627970538396967e-05,0.001451881461056331
-5.02875,-1.627970538396967e-05,0.0007816549356509205
-5.0275,-1.627970538396967e-05,-0.000223684852456052
-5.02625,-1.627970538396967e-05,-0.0008939113778610051
-5.025,0.0003182858946044272,-0.001564137903265653
-5.02375,0.0003182858946045794,-0.001899251165968435
-5.0225,-1.627970538396967e-05,-0.001564137903265958
-5.02125,-1.627970538396967e-05,-0.0008939113778610051
-5.02,-1.627970538396967e-05,0.0001114284102467294
-5.01875,-1.627970538396967e-05,0.0007816549356513777
-5.0175,-1.627970538396967e-05,0.001451881461056331
-5.01625,-1.627970538396967e-05,0.001786994723758655
-5.015,-1.627970538396967e-05,0.001786994723758655
-5.01375,-1.627970538396967e-05,0.001451881461056331
-5.0125,-1.627970538396967e-05,0.0007816549356513777
-5.01125,-1.627970538396967e-05,0.0001114284102467294
-5.01,-1.627970538396967e-05,-0.0008939113778610051
-5.00875,-1.627970538396967e-05,-0.001564137903265958
-5.0075,0.0003182858946045794,-0.001899251165968435
-5.00625,-1.627970538396967e-05,-0.001564137903265806
-5.005,-1.627970538396967e-05,-0.001229024640563482
-5.00375,-1.627970538396967e-05,-0.000223684852456052
-5.0025,-1.627970538396967e-05,0.0004465416729485964
-5.00125,-1.627970538396967e-05,0.001116768198353854
-5,-1.627970538396967e-05,0.001786994723758807
-4.99875,-1.627970538396967e-05,0.002122107986461284
-4.9975,-1.627970538396967e-05,0.001786994723758502
-4.99625,-1.627970538396967e-05,0.001116768198353854
-4.995,-1.627970538396967e-05,0.0004465416729489012
-4.99375,-1.627970538396967e-05,-0.0005587981151580713
-4.9925,-1.627970538396967e-05,-0.001229024640563482
-4.99125,-1.627970538396967e-05,-0.001564137903265958
-4.99,-1.627970538396967e-05,-0.001899251165968435
-4.98875,-1.627970538396967e-05,-0.001564137903265653
-4.9875,-1.627970538396967e-05,-0.0008939113778610051
-4.98625,-1.627970538396967e-05,0.0001114284102464246
-4.985,-1.627970538396967e-05,0.001116768198353397
-4.98375,-1.627970538396967e-05,0.00178699472375896
-4.9825,-1.627970538396967e-05,0.002122107986461284
-4.98125,-1.627970538396967e-05,0.001786994723758807
-4.98,-1.627970538396967e-05,0.001451881461056483
-4.97875,-1.627970538396967e-05,0.0004465416729489012
-4.9775,-1.627970538396967e-05,-0.000223684852456052
-4.97625,-1.627970538396967e-05,-0.0008939113778610051
-4.975,-1.627970538396967e-05,-0.001564137903266111
-4.97375,-1.627970538396967e-05,-0.001899251165968435
-4.9725,-1.627970538396967e-05,-0.001564137903265958
-4.97125,-1.627970538396967e-05,-0.0008939113778613099
-4.97,-1.627970538396967e-05,-0.000223684852456052
-4.96875,-1.627970538396967e-05,0.0007816549356513777
-4.9675,-1.627970538396967e-05,0.001451881461056331
-4.96625,-1.627970538396967e-05,0.001786994723758807
-4.965,-1.627970538396967e-05,0.001786994723758807
-4.96375,-1.627970538396967e-05,0.001451881461056331
-4.9625,-1.627970538396967e-05,0.0007816549356516824
-4.96125,-1.627970538396967e-05,0.0001114284102464246
-4.96,-1.627970538396967e-05,-0.0008939113778610051
-4.95875,-1.627970538396967e-05,-0.001564137903265958
-4.9575,-1.627970538396967e-05,-0.001564137903265958
-4.95625,-1.627970538396967e-05,-0.001564137903265958
-4.955,-1.627970538396967e-05,-0.001229024640563482
-4.95375,-1.627970538396967e-05,-0.0002236848524565091
-4.9525,-1.627970538396967e-05,0.0004465416729493584
-4.95125,-1.627970538396967e-05,0.001451881461056331
-4.95,-1.627970538396967e-05,0.001786994723758807
-4.94875,-1.627970538396967e-05,0.002122107986461132
-4.9475,-1.627970538396967e-05,0.001786994723758807
-4.94625,-1.627970538396967e-05,0.001116768198353854
-4.945,-1.627970538396967e-05,0.0004465416729489012
-4.94375,-1.627970538396967e-05,-0.0005587981151588333
-4.9425,-1.627970538396967e-05,-0.001229024640563482
-4.94125,-1.627970538396967e-05,-0.001564137903265958
-4.94,0.0003182858946044272,-0.001564137903265958
-4.93875,-1.627970538396967e-05,-0.001564137903265958
-4.9375,-1.627970538396967e-05,-0.0005587981151585285
-4.93625,-1.627970538396967e-05,0.0001114284102464246
-4.935,-1.627970538396967e-05,0.001116768198354159
-4.93375,-1.627970538396967e-05,0.001786994723758807
-4.9325,-1.627970538396967e-05,0.002122107986461284
-4.93125,-1.627970538396967e-05,0.00178699472375896
-4.93,-1.627970538396967e-05,0.001451881461056331
-4.92875,-1.627970538396967e-05,0.0007816549356513777
-4.9275,-1.627970538396967e-05,-0.000223684852456052
-4.92625,-1.627970538396967e-05,-0.0008939113778613099
-4.925,-1.627970538396967e-05,-0.001564137903265958
-4.92375,-1.627970538396967e-05,-0.001899251165968435
-4.9225,-1.627970538396967e-05,-0.001564137903266111
-4.92125,0.0003182858946044272,-0.0008939113778607004
-4.92,-1.627970538396967e-05,-0.000223684852456052
-4.91875,-1.627970538396967e-05,0.0007816549356513777
-4.9175,-1.627970538396967e-05,0.001451881461056026
-4.91625,-1.627970538396967e-05,0.002122107986461284
-4.915,-1.627970538396967e-05,0.002122107986461284
-4.91375,-1.627970538396967e-05,0.001786994723758807
-4.9125,-1.627970538396967e-05,0.0007816549356510729
-4.91125,-1.627970538396967e-05,0.0001114284102464246
-4.91,-1.627970538396967e-05,-0.0005587981151585285
-4.90875,-1.627970538396967e-05,-0.001229024640563177
-4.9075,-1.627970538396967e-05,-0.001564137903265958
-4.90625,-1.627970538396967e-05,-0.001564137903265958
-4.905,-1.627970538396967e-05,-0.001229024640563482
-4.90375,-1.627970538396967e-05,-0.0002236848524557472
-4.9025,-1.627970538396967e-05,0.0004465416729489012
-4.90125,-1.627970538396967e-05,0.001451881461056331
-4.9,-1.627970538396967e-05,0.001786994723758655
-4.89875,-1.627970538396967e-05,0.002122107986461284
-4.8975,-1.627970538396967e-05,0.001786994723758807
-4.89625,-1.627970538396967e-05,0.001116768198353854
-4.895,-1.627970538396967e-05,0.0004465416729485964
-4.89375,-1.627970538396967e-05,-0.000223684852456052
-4.8925,-1.627970538396967e-05,-0.001229024640563482
-4.89125,-1.627970538396967e-05,-0.001564137903265806
-4.89,-1.627970538396967e-05,-0.001564137903265806
-4.88875,-1.627970538396967e-05,-0.001229024640563482
-4.8875,-1.627970538396967e-05,-0.0005587981151585285
-4.88625,-1.627970538396967e-05,0.0001114284102461198
-4.885,-1.627970538396967e-05,0.001116768198353854
-4.88375,-1.627970538396967e-05,0.001786994723758807
-4.8825,-1.627970538396967e-05,0.002122107986461284
-4.88125,-1.627970538396967e-05,0.001786994723758655
-4.88,-1.627970538396967e-05,0.001451881461056331
-4.87875,-1.627970538396967e-05,0.0007816549356513777
-4.8775,-1.627970538396967e-05,-0.0002236848524555949
-4.87625,-1.627970538396967e-05,-0.0008939113778610051
-4.875,0.0003182858946045794,-0.001564137903265958
-4.87375,-1.627970538396967e-05,-0.001564137903265958
-4.8725,-1.627970538396967e-05,-0.001564137903265653
-4.87125,-1.627970538396967e-05,-0.0008939113778610051
-4.87,-1.627970538396967e-05,0.0001114284102464246
-4.86875,-1.627970538396967e-05,0.0007816549356510729
-4.8675,-1.627970538396967e-05,0.001451881461056331
-4.86625,-1.627970538396967e-05,0.002122107986461284
-4.865,-1.627970538396967e-05,0.002122107986461284
-4.86375,-1.627970538396967e-05,0.001786994723758502
-4.8625,-1.627970538396967e-05,0.001116768198353854
-4.86125,-1.627970538396967e-05,0.0001114284102464246
-4.86,-1.627970538396967e-05,-0.0005587981151582238
-4.85875,-1.627970538396967e-05,-0.001229024640563634
-4.8575,-1.627970538396967e-05,-0.001564137903265958
-4.85625,-1.627970538396967e-05,-0.001564137903265958
-4.855,-1.627970538396967e-05,-0.001229024640563634
-4.85375,-1.627970538396967e-05,-0.000223684852456052
-4.8525,-1.627970538396967e-05,0.0004465416729489012
-4.85125,-1.627970538396967e-05,0.001451881461056331
-4.85,-1.627970538396967e-05,0.00178699472375896
-4.84875,-1.627970538396967e-05,0.002122107986461284
-4.8475,-1.627970538396967e-05,0.001786994723758807
-4.84625,-1.627970538396967e-05,0.001451881461056483
-4.845,-1.627970538396967e-05,0.0004465416729489012
-4.84375,-1.627970538396967e-05,-0.000223684852456052
-4.8425,-1.627970538396967e-05,-0.001229024640563482
-4.84125,0.0003182858946044272,-0.001564137903265958
-4.84,-1.627970538396967e-05,-0.001564137903265958
-4.83875,-1.627970538396967e-05,-0.001229024640563482
-4.8375,-1.627970538396967e-05,-0.0005587981151588333
-4.83625,-1.627970538396967e-05,0.0001114284102464246
-4.835,-1.627970538396967e-05,0.001116768198353854
-4.83375,-1.627970538396967e-05,0.001786994723758807
-4.8325,-1.627970538396967e-05,0.002122107986461284
-4.83125,-1.627970538396967e-05,0.002122107986461284
-4.83,-1.627970538396967e-05,0.001451881461056331
-4.82875,-1.627970538396967e-05,0.0007816549356516824
-4.8275,-1.627970538396967e-05,0.0001114284102459674
-4.82625,-1.627970538396967e-05,-0.0008939113778610051
-4.825,-1.627970538396967e-05,-0.001564137903265958
-4.82375,-1.627970538396967e-05,-0.001564137903265958
-4.8225,-1.627970538396967e-05,-0.001564137903265958
-4.82125,-1.627970538396967e-05,-0.0008939113778610051
-4.82,-1.627970538396967e-05,0.0001114284102464246
-4.81875,-1.627970538396967e-05,0.0007816549356518349
-4.8175,-1.627970538396967e-05,0.001786994723758807
-4.81625,-1.627970538396967e-05,0.002122107986461284
-4.815,-1.627970538396967e-05,0.002122107986461284
-4.81375,-1.627970538396967e-05,0.001786994723758807
-4.8125,-1.627970538396967e-05,0.001116768198353854
-4.81125,-1.627970538396967e-05,0.0001114284102464246
-4.81,-1.627970538396967e-05,-0.0008939113778613099
-4.80875,-1.627970538396967e-05,-0.001564137903265958
-4.8075,-1.627970538396967e-05,-0.001564137903265958
-4.80625,-1.627970538396967e-05,-0.001564137903265958
-4.805,-1.627970538396967e-05,-0.001229024640563482
-4.80375,-1.627970538396967e-05,-0.000223684852456052
-4.8025,-1.627970538396967e-05,0.0004465416729489012
-4.80125,-1.627970538396967e-05,0.001451881461056483
-4.8,-1.627970538396967e-05,0.001786994723758807
-4.79875,-1.627970538396967e-05,0.002122107986461284
-4.7975,-1.627970538396967e-05,0.00178699472375896
-4.79625,-1.627970538396967e-05,0.001116768198353549
-4.795,-1.627970538396967e-05,0.0004465416729489012
-4.79375,-1.627970538396967e-05,-0.0005587981151585285
-4.7925,-1.627970538396967e-05,-0.001229024640563177
-4.79125,-1.627970538396967e-05,-0.001564137903265958
-4.79,-1.627970538396967e-05,-0.001564137903265958
-4.78875,-1.627970538396967e-05,-0.001564137903265958
-4.7875,-1.627970538396967e-05,-0.0005587981151582238
-4.78625,-1.627970538396967e-05,0.0001114284102464246
-4.785,-1.627970538396967e-05,0.001116768198353854
-4.78375,-1.627970538396967e-05,0.001786994723758502
-4.7825,-1.627970538396967e-05,0.002122107986461284
-4.78125,-1.627970538396967e-05,0.001786994723758807
-4.78,-1.627970538396967e-05,0.001451881461056331
-4.77875,-1.627970538396967e-05,0.0007816549356509205
-4.7775,-1.627970538396967e-05,-0.000223684852456052
-4.77625,-1.627970538396967e-05,-0.0008939113778610051
-4.775,-1.627970538396967e-05,-0.001564137903265653
-4.77375,-1.627970538396967e-05,-0.001564137903265958
-4.7725,-1.627970538396967e-05,-0.001564137903265958
-4.77125,-1.627970538396967e-05,-0.0008939113778610051
-4.77,-1.627970538396967e-05,-0.0002236848524555948
-4.76875,-1.627970538396967e-05,0.0007816549356513777
-4.7675,-1.627970538396967e-05,0.001451881461056331
-4.76625,-1.627970538396967e-05,0.001786994723758655
-4.765,-1.627970538396967e-05,0.001786994723758807
-4.76375,-1.627970538396967e-05,0.001786994723758807
-4.7625,-1.627970538396967e-05,0.0007816549356513777
-4.76125,-1.627970538396967e-05,0.0001114284102467294
-4.76,-1.627970538396967e-05,-0.0008939113778610051
-4.75875,-1.627970538396967e-05,-0.001564137903265958
-4.7575,-1.627970538396967e-05,-0.001899251165968435
-4.75625,-1.627970538396967e-05,-0.001564137903265806
-4.755,-1.627970538396967e-05,-0.001229024640563482
-4.75375,-1.627970538396967e-05,-0.000223684852456052
-4.7525,-1.627970538396967e-05,0.0004465416729485964
-4.75125,-1.627970538396967e-05,0.001116768198353854
-4.75,-1.627970538396967e-05,0.001786994723758807
-4.74875,-1.627970538396967e-05,0.001786994723758807
-4.7475,-1.627970538396967e-05,0.001786994723758502
-4.74625,-1.627970538396967e-05,0.001116768198353854
-4.745,-1.627970538396967e-05,0.0004465416729489012
-4.74375,0.0003182858946044272,-0.0005587981151580713
-4.7425,-1.627970538396967e-05,-0.001229024640563482
-4.74125,-1.627970538396967e-05,-0.001564137903265958
-4.74,-1.627970538396967e-05,-0.001899251165968435
-4.73875,-1.627970538396967e-05,-0.001564137903265653
-4.7375,-1.627970538396967e-05,-0.0008939113778610051
-4.73625,-1.627970538396967e-05,0.0001114284102464246
-4.735,-1.627970538396967e-05,0.001116768198353397
-4.73375,-1.627970538396967e-05,0.00178699472375896
-4.7325,-1.627970538396967e-05,0.002122107986461284
-4.73125,-1.627970538396967e-05,0.001786994723758807
-4.73,-1.627970538396967e-05,0.001451881461056483
-4.72875,-1.627970538396967e-05,0.0007816549356513777
-4.7275,-1.627970538396967e-05,-0.000223684852456052
-4.72625,-1.627970538396967e-05,-0.0008939113778610051
-4.725,0.0003182858946045794,-0.001564137903265958
-4.72375,0.0003182858946045794,-0.001564137903265958
-4.7225,-1.627970538396967e-05,-0.001564137903265958
-4.72125,-1.627970538396967e-05,-0.0008939113778613099
-4.72,-1.627970538396967e-05,0.0001114284102464246
-4.71875,-1.627970538396967e-05,0.0007816549356513777
-4.7175,-1.627970538396967e-05,0.001451881461056331
-4.71625,-1.627970538396967e-05,0.00178699472375896
-4.715,-1.627970538396967e-05,0.002122107986461284
-4.71375,-1.627970538396967e-05,0.001786994723758807
-4.7125,-1.627970538396967e-05,0.0007816549356518348
-4.71125,-1.627970538396967e-05,0.0001114284102464246
-4.71,-1.627970538396967e-05,-0.0008939113778610051
-4.70875,-1.627970538396967e-05,-0.001564137903265958
-4.7075,-1.627970538381753e-05,-0.001899251165968283
-4.70625,0.0003182858946045794,-0.001564137903265958
-4.705,-1.627970538396967e-05,-0.001229024640563482
-4.70375,-1.627970538396967e-05,-0.0005587981151588333
-4.7025,-1.627970538396967e-05,0.000446541672949206
-4.70125,-1.627970538396967e-05,0.001116768198353854
-4.7,-1.627970538396967e-05,0.001786994723758807
-4.69875,-1.627970538396967e-05,0.002122107986461132
-4.6975,-1.627970538396967e-05,0.001786994723758807
-4.69625,-1.627970538396967e-05,0.001116768198353854
-4.695,-1.627970538396967e-05,0.0004465416729489012
-4.69375,-1.627970538396967e-05,-0.0005587981151588333
-4.6925,-1.627970538396967e-05,-0.001229024640563482
-4.69125,-1.627970538396967e-05,-0.001899251165968435
-4.69,0.0003182858946044272,-0.001564137903266111
-4.68875,0.0003182858946045794,-0.001564137903265958
-4.6875,0.0003182858946045794,-0.0008939113778610051
-4.68625,-1.627970538396967e-05,0.0001114284102464246
-4.685,-1.627970538396967e-05,0.0007816549356518349
-4.68375,-1.627970538396967e-05,0.001786994723758807
-4.6825,-1.627970538396967e-05,0.002122107986461284
-4.68125,-1.627970538396967e-05,0.00178699472375896
-4.68,-1.627970538396967e-05,0.001451881461056331
-4.67875,-1.627970538396967e-05,0.0007816549356513777
-4.6775,-1.627970538396967e-05,-0.000223684852456052
-4.67625,-1.627970538396967e-05,-0.001229024640563634
-4.675,-1.627970538396967e-05,-0.001564137903265958
-4.67375,0.0003182858946045794,-0.001899251165968435
-4.6725,0.0003182858946045794,-0.001564137903266111
-4.67125,-1.627970538396967e-05,-0.001229024640563025
-4.67,-1.627970538396967e-05,-0.000223684852456052
-4.66875,-1.627970538396967e-05,0.0007816549356513777
-4.6675,-1.627970538396967e-05,0.001451881461056026
-4.66625,-1.627970538396967e-05,0.001786994723758807
-4.665,-1.627970538396967e-05,0.001786994723758807
-4.66375,-1.627970538396967e-05,0.001451881461056331
-4.6625,-1.627970538396967e-05,0.001116768198353397
-4.66125,-1.627970538396967e-05,0.0001114284102464246
-4.66,-1.627970538396967e-05,-0.0008939113778610051
-4.65875,-1.627970538396967e-05,-0.001229024640563329
-4.6575,-1.627970538396967e-05,-0.001899251165968435
-4.65625,-1.627970538396967e-05,-0.001564137903265958
-4.655,-1.627970538396967e-05,-0.001229024640563482
-4.65375,-1.627970538396967e-05,-0.0005587981151580713
-4.6525,-1.627970538396967e-05,0.0004465416729489012
-4.65125,-1.627970538396967e-05,0.001116768198353854
-4.65,-1.627970538396967e-05,0.001786994723758502
-4.64875,-1.627970538396967e-05,0.001786994723758807
-4.6475,-1.627970538396967e-05,0.001786994723758807
-4.64625,-1.627970538396967e-05,0.001116768198353854
-4.645,-1.627970538381753e-05,0.000446541672948444
-4.64375,0.0003182858946045794,-0.0005587981151585285
-4.6425,0.0003182858946045794,-0.001229024640563482
-4.64125,0.0003182858946045794,-0.001564137903265806
-4.64,0.0003182858946045794,-0.001899251165968283
-4.63875,0.0003182858946045794,-0.001564137903265958
-4.6375,0.0003182858946045794,-0.0008939113778610051
-4.63625,-1.62797053838175e-05,0.0001114284102459674
-4.635,-1.627970538396967e-05,0.001116768198353854
-4.63375,-1.627970538396967e-05,0.001786994723758807
-4.6325,-1.627970538396967e-05,0.002122107986461284
-4.63125,-1.627970538396967e-05,0.001786994723758655
-4.63,-1.627970538396967e-05,0.001451881461056331
-4.62875,-1.627970538396967e-05,0.0007816549356513777
-4.6275,-1.627970538396967e-05,-0.0002236848524555949
-4.62625,-1.627970538396967e-05,-0.0008939113778610051
-4.625,0.0003182858946045794,-0.001564137903265958
-4.62375,0.0003182858946045794,-0.001899251165968435
-4.6225,-1.627970538381753e-05,-0.001564137903265653
-4.62125,0.0003182858946045794,-0.0008939113778610051
-4.62,-1.627970538396967e-05,-0.000223684852456052
-4.61875,-1.627970538396967e-05,0.0007816549356509206
-4.6175,-1.627970538396967e-05,0.001451881461056331
-4.61625,-1.627970538396967e-05,0.001786994723758807
-4.615,-1.627970538396967e-05,0.001786994723758807
-4.61375,-1.627970538396967e-05,0.001786994723758502
-4.6125,-1.627970538396967e-05,0.001116768198353854
-4.61125,0.0003182858946045794,0.0001114284102464246
-4.61,0.0003182858946045794,-0.0008939113778605479
-4.60875,0.0003182858946044272,-0.001564137903265958
-4.6075,-1.627970538396967e-05,-0.001564137903265958
-4.60625,-1.627970538396967e-05,-0.001564137903265958
-4.605,0.0003182858946044272,-0.001229024640563634
-4.60375,0.0003182858946045794,-0.0005587981151585285
-4.6025,0.0003182858946045794,0.0004465416729489012
-4.60125,-1.627970538396967e-05,0.001116768198353854
-4.6,-1.627970538396967e-05,0.001786994723758807
-4.59875,-1.627970538396967e-05,0.001786994723758807
-4.5975,-1.627970538396967e-05,0.001786994723758807
-4.59625,-1.627970538396967e-05,0.001116768198354159
-4.595,-1.627970538396967e-05,0.0004465416729489012
-4.59375,-1.627970538396967e-05,-0.0005587981151585285
-4.5925,-1.627970538396967e-05,-0.001229024640563482
-4.59125,-1.627970538396967e-05,-0.001564137903266111
-4.59,-1.627970538396967e-05,-0.001899251165968435
-4.58875,-1.627970538396967e-05,-0.001564137903265958
-4.5875,-1.627970538396967e-05,-0.0008939113778613099
-4.58625,-1.627970538396967e-05,0.0001114284102464246
-4.585,-1.627970538396967e-05,0.0007816549356513777
-4.58375,-1.627970538396967e-05,0.001786994723758807
-4.5825,-1.627970538396967e-05,0.002122107986461132
-4.58125,-1.627970538396967e-05,0.001786994723758807
-4.58,-1.627970538396967e-05,0.001451881461056331
-4.57875,-1.627970538396967e-05,0.0007816549356516824
-4.5775,-1.627970538396967e-05,-0.0002236848524563568
-4.57625,-1.627970538396967e-05,-0.0008939113778610051
-4.575,0.0003182858946045794,-0.001564137903265958
-4.57375,-1.62797053838175e-05,-0.001564137903265958
-4.5725,-1.627970538396967e-05,-0.001564137903265958
-4.57125,-1.627970538396967e-05,-0.0008939113778610051
-4.57,-1.627970538396967e-05,-0.000223684852456052
-4.56875,-1.627970538396967e-05,0.0007816549356516824
-4.5675,-1.627970538396967e-05,0.001451881461056331
-4.56625,-1.627970538396967e-05,0.001786994723758807
-4.565,-1.627970538396967e-05,0.002122107986461132
-4.56375,-1.627970538396967e-05,0.001451881461056331
-4.5625,-1.627970538396967e-05,0.001116768198353854
-4.56125,-1.627970538396967e-05,0.0001114284102464246
-4.56,-1.627970538381753e-05,-0.0008939113778613099
-4.55875,0.0003182858946045794,-0.001564137903265958
-4.5575,-1.627970538396967e-05,-0.001899251165968435
-4.55625,0.0003182858946044272,-0.001564137903266111
-4.555,-1.627970538396967e-05,-0.001229024640563482
-4.55375,-1.627970538396967e-05,-0.0005587981151585285
-4.5525,-1.627970538396967e-05,0.0004465416729489012
-4.55125,-1.627970538396967e-05,0.001116768198354159
-4.55,-1.627970538396967e-05,0.001786994723758807
-4.54875,-1.627970538396967e-05,0.001786994723758807
-4.5475,-1.627970538396967e-05,0.001786994723758807
-4.54625,-1.627970538396967e-05,0.001116768198353549
-4.545,-1.627970538396967e-05,0.0004465416729489012
-4.54375,-1.627970538396967e-05,-0.0005587981151585285
-4.5425,-1.627970538396967e-05,-0.001229024640563177
-4.54125,-1.627970538396967e-05,-0.001899251165968435
-4.54,0.0003182858946045794,-0.001899251165968435
-4.53875,0.0003182858946045794,-0.001564137903265958
-4.5375,-1.627970538396967e-05,-0.0008939113778605479
-4.53625,-1.627970538396967e-05,0.0001114284102464246
-4.535,-1.627970538396967e-05,0.0007816549356513777
-4.53375,-1.627970538396967e-05,0.001451881461056026
-4.5325,-1.627970538396967e-05,0.001786994723758807
-4.53125,-1.627970538396967e-05,0.001786994723758807
-4.53,-1.627970538396967e-05,0.001451881461056331
-4.52875,-1.627970538396967e-05,0.0007816549356509205
-4.5275,-1.627970538396967e-05,-0.000223684852456052
-4.52625,-1.627970538396967e-05,-0.0008939113778610051
-4.525,-1.627970538396967e-05,-0.001564137903265653
-4.52375,-1.627970538396967e-05,-0.001899251165968435
-4.5225,-1.627970538396967e-05,-0.001564137903265958
-4.52125,0.0003182858946045794,-0.0008939113778610051
-4.52,-1.627970538396967e-05,-0.0002236848524557472
-4.51875,-1.627970538396967e-05,0.0004465416729489012
-4.5175,-1.627970538396967e-05,0.001451881461056331
-4.51625,-1.627970538396967e-05,0.001786994723758655
-4.515,-1.627970538396967e-05,0.001786994723758655
-4.51375,-1.627970538396967e-05,0.001451881461056331
-4.5125,-1.627970538396967e-05,0.001116768198353854
-4.51125,-1.627970538396967e-05,0.0001114284102468818
-4.51,-1.627970538396967e-05,-0.0008939113778610051
-4.50875,-1.627970538396967e-05,-0.001564137903265958
-4.5075,0.0003182858946045794,-0.001899251165968435
-4.50625,0.0003182858946045794,-0.00189925116596813
-4.505,0.0003182858946045794,-0.001229024640563482
-4.50375,-1.627970538396967e-05,-0.0005587981151585285
-4.5025,0.0003182858946044272,0.000446541672948444
-4.50125,-1.627970538396967e-05,0.001116768198353854
-4.5,-1.627970538396967e-05,0.001786994723758807
-4.49875,-1.627970538396967e-05,0.002122107986461284
-4.4975,-1.627970538396967e-05,0.001786994723758502
-4.49625,-1.627970538396967e-05,0.001116768198353854
-4.495,-1.627970538396967e-05,0.0004465416729489012
-4.49375,-1.627970538396967e-05,-0.0005587981151580713
-4.4925,-1.627970538396967e-05,-0.001229024640563482
-4.49125,0.0003182858946045794,-0.001564137903265958
-4.49,0.0003182858946045794,-0.001564137903265958
-4.48875,0.0003182858946044272,-0.001564137903265653
-4.4875,-1.627970538396967e-05,-0.0008939113778610051
-4.48625,-1.627970538396967e-05,0.0001114284102464246
-4.485,-1.627970538396967e-05,0.001116768198353397
-4.48375,-1.627970538396967e-05,0.00178699472375896
-4.4825,-1.627970538396967e-05,0.002122107986461284
-4.48125,-1.627970538396967e-05,0.001786994723758807
-4.48,-1.627970538396967e-05,0.001451881461056483
-4.47875,-1.627970538396967e-05,0.0007816549356513777
-4.4775,-1.627970538396967e-05,-0.000223684852456052
-4.47625,0.0003182858946045794,-0.0008939113778610051
-4.475,0.0003182858946045794,-0.001564137903266111
-4.47375,0.0003182858946045794,-0.001899251165968435
-4.4725,-1.627970538396967e-05,-0.001564137903265958
-4.47125,0.0003182858946044272,-0.0008939113778613099
-4.47,-1.627970538396967e-05,-0.000223684852456052
-4.46875,-1.627970538396967e-05,0.0004465416729489012
-4.4675,-1.627970538396967e-05,0.001451881461056331
-4.46625,-1.627970538396967e-05,0.001786994723758807
-4.465,-1.627970538396967e-05,0.001786994723758807
-4.46375,0.0003182858946045794,0.001451881461056331
-4.4625,-1.62797053838175e-05,0.001116768198354007
-4.46125,0.0003182858946045794,0.0001114284102464246
-4.46,0.0003182858946045794,-0.0005587981151585285
-4.45875,0.0003182858946045794,-0.001229024640563482
-4.4575,0.0003182858946045794,-0.001564137903265958
-4.45625,0.0003182858946045794,-0.001564137903265958
-4.455,0.0003182858946045794,-0.001229024640563482
-4.45375,-1.62797053838175e-05,-0.0005587981151588333
-4.4525,-1.627970538396967e-05,0.000446541672949206
-4.45125,-1.627970538396967e-05,0.001116768198353854
-4.45,-1.627970538396967e-05,0.001786994723758807
-4.44875,-1.627970538396967e-05,0.002122107986461132
-4.4475,0.0003182858946045794,0.001786994723758807
-4.44625,-1.627970538396967e-05,0.001116768198353854
-4.445,-1.627970538396967e-05,0.0004465416729489012
-4.44375,-1.627970538396967e-05,-0.0005587981151588333
-4.4425,-1.627970538396967e-05,-0.001229024640563482
-4.44125,0.0003182858946045794,-0.001564137903265958
-4.44,-1.62797053838175e-05,-0.001564137903265958
-4.43875,0.0003182858946045794,-0.001564137903265958
-4.4375,0.0003182858946045794,-0.0008939113778610051
-4.43625,0.0003182858946045794,0.0001114284102464246
-4.435,0.0003182858946044272,0.001116768198354159
-4.43375,-1.627970538396967e-05,0.001786994723758807
-4.4325,-1.627970538396967e-05,0.002122107986461284
-4.43125,-1.627970538396967e-05,0.00178699472375896
-4.43,-1.627970538396967e-05,0.001451881461056331
-4.42875,-1.627970538396967e-05,0.0007816549356513777
-4.4275,0.0003182858946045794,-0.000223684852456052
-4.42625,0.0003182858946045794,-0.0008939113778613099
-4.425,0.0003182858946045794,-0.001564137903265958
-4.42375,0.0003182858946045794,-0.001899251165968435
-4.4225,0.0003182858946045794,-0.001564137903266111
-4.42125,0.0003182858946045794,-0.0008939113778607004
-4.42,0.0003182858946045794,-0.000223684852456052
-4.41875,-1.627970538396967e-05,0.0007816549356513777
-4.4175,-1.627970538396967e-05,0.001451881461056026
-4.41625,-1.627970538396967e-05,0.001786994723758807
-4.415,-1.627970538396967e-05,0.002122107986461284
-4.41375,-1.627970538396967e-05,0.001786994723758807
-4.4125,-1.627970538396967e-05,0.001116768198353397
-4.41125,-1.627970538396967e-05,0.0001114284102464246
-4.41,0.0003182858946045794,-0.0005587981151585285
-4.40875,0.0003182858946045794,-0.001229024640563177
-4.4075,0.0003182858946045794,-0.001564137903265958
-4.40625,0.0003182858946045794,-0.001564137903265958
-4.405,0.0003182858946045794,-0.001229024640563482
-4.40375,0.0003182858946044272,-0.0002236848524557472
-4.4025,-1.627970538396967e-05,0.0004465416729489012
-4.40125,-1.627970538396967e-05,0.001116768198353854
-4.4,-1.627970538396967e-05,0.001786994723758502
-4.39875,-1.627970538396967e-05,0.002122107986461284
-4.3975,-1.627970538396967e-05,0.001786994723758807
-4.39625,-1.627970538396967e-05,0.001116768198353854
-4.395,-1.627970538396967e-05,0.000446541672948444
-4.39375,-1.627970538396967e-05,-0.0005587981151585285
-4.3925,-1.627970538396967e-05,-0.001229024640563482
-4.39125,-1.627970538396967e-05,-0.001564137903265806
-4.39,0.0003182858946044272,-0.001564137903265958
-4.38875,-1.627970538396967e-05,-0.001564137903265958
-4.3875,-1.627970538396967e-05,-0.0008939113778610051
-4.38625,-1.627970538396967e-05,0.0001114284102459674
-4.385,-1.627970538396967e-05,0.001116768198353854
-4.38375,-1.627970538396967e-05,0.001786994723758807
-4.3825,-1.627970538396967e-05,0.002122107986461284
-4.38125,-1.627970538396967e-05,0.001786994723758655
-4.38,-1.627970538396967e-05,0.001451881461056331
-4.37875,-1.627970538396967e-05,0.0007816549356513777
-4.3775,-1.627970538396967e-05,-0.0002236848524555949
-4.37625,0.0003182858946045794,-0.0008939113778610051
-4.375,0.0003182858946045794,-0.001564137903265958
-4.37375,0.0003182858946045794,-0.001899251165968435
-4.3725,0.0003182858946044272,-0.001564137903265653
-4.37125,-1.627970538396967e-05,-0.0008939113778610051
-4.37,-1.627970538396967e-05,-0.000223684852456052
-4.36875,-1.627970538396967e-05,0.0007816549356509206
-4.3675,-1.627970538396967e-05,0.001451881461056331
-4.36625,-1.627970538396967e-05,0.001786994723758807
-4.365,-1.627970538396967e-05,0.002122107986461284
-4.36375,-1.627970538396967e-05,0.001786994723758502
-4.3625,-1.627970538396967e-05,0.001116768198353854
-4.36125,-1.627970538396967e-05,0.0001114284102464246
-4.36,-1.627970538396967e-05,-0.0005587981151582238
-4.35875,-1.627970538381753e-05,-0.001229024640563634
-4.3575,0.0003182858946045794,-0.001564137903265958
-4.35625,0.0003182858946045794,-0.001564137903265958
-4.355,0.0003182858946045794,-0.001229024640563634
-4.35375,0.0003182858946045794,-0.000223684852456052
-4.3525,-1.627970538396967e-05,0.0004465416729489012
-4.35125,-1.627970538396967e-05,0.001116768198353854
-4.35,-1.627970538396967e-05,0.00178699472375896
-4.34875,-1.627970538396967e-05,0.002122107986461284
-4.3475,-1.627970538396967e-05,0.001786994723758807
-4.34625,-1.627970538396967e-05,0.001451881461056483
-4.345,-1.627970538396967e-05,0.0004465416729489012
-4.34375,-1.627970538396967e-05,-0.000223684852456052
-4.3425,-1.627970538396967e-05,-0.001229024640563482
-4.34125,-1.627970538396967e-05,-0.001564137903266111
-4.34,-1.627970538396967e-05,-0.001899251165968435
-4.33875,0.0003182858946045794,-0.001564137903265958
-4.3375,-1.62797053838175e-05,-0.0008939113778613099
-4.33625,-1.627970538396967e-05,0.0001114284102464246
-4.335,-1.627970538396967e-05,0.0007816549356513777
-4.33375,-1.627970538396967e-05,0.001786994723758807
-4.3325,-1.627970538396967e-05,0.002122107986461132
-4.33125,-1.627970538396967e-05,0.001786994723758807
-4.33,-1.627970538396967e-05,0.001451881461056331
-4.32875,-1.627970538396967e-05,0.0007816549356516824
-4.3275,-1.627970538381753e-05,-0.0002236848524563568
-4.32625,0.0003182858946045794,-0.0008939113778610051
-4.325,0.0003182858946045794,-0.001564137903265958
-4.32375,0.0003182858946045794,-0.001564137903265958
-4.3225,0.0003182858946045794,-0.001564137903265958
-4.32125,0.0003182858946045794,-0.0008939113778610051
-4.32,0.0003182858946045794,-0.000223684852456052
-4.31875,0.0003182858946045794,0.0007816549356516824
-4.3175,0.0003182858946045794,0.001451881461056331
-4.31625,-1.627970538396967e-05,0.001786994723758807
-4.315,-1.627970538396967e-05,0.002122107986461132
-4.31375,-1.627970538396967e-05,0.001786994723758807
-4.3125,0.0003182858946045794,0.001116768198353854
-4.31125,0.0003182858946045794,0.0001114284102464246
-4.31,0.0003182858946045794,-0.0005587981151588333
-4.30875,0.0003182858946045794,-0.001229024640563482
-4.3075,0.0003182858946045794,-0.001899251165968435
-4.30625,0.0003182858946045794,-0.001564137903266111
-4.305,0.0003182858946045794,-0.001229024640563482
-4.30375,-1.627970538396967e-05,-0.0005587981151585285
-4.3025,-1.627970538396967e-05,0.0004465416729489012
-4.30125,-1.627970538381753e-05,0.001116768198354159
-4.3,0.0003182858946045794,0.001786994723758807
-4.29875,-1.627970538396967e-05,0.002122107986461284
-4.2975,0.0003182858946044272,0.00178699472375896
-4.29625,-1.627970538381753e-05,0.001116768198353549
-4.295,0.0003182858946045794,0.0004465416729489012
-4.29375,0.0003182858946045794,-0.000223684852456052
-4.2925,0.0003182858946045794,-0.001229024640563025
-4.29125,0.0003182858946045794,-0.001564137903265958
-4.29,0.0003182858946045794,-0.001564137903265958
-4.28875,0.0003182858946045794,-0.001564137903265958
-4.2875,0.0003182858946045794,-0.0005587981151582238
-4.28625,0.0003182858946045794,0.0001114284102464246
-4.285,0.0003182858946045794,0.0007816549356513777
-4.28375,-1.62797053838175e-05,0.00178699472375835
-4.2825,0.0003182858946045794,0.002122107986461284
-4.28125,-1.627970538396967e-05,0.001786994723758807
-4.28,-1.627970538396967e-05,0.001451881461056331
-4.27875,0.0003182858946045794,0.0007816549356509205
-4.2775,0.0003182858946045794,-0.000223684852456052
-4.27625,0.0003182858946045794,-0.0008939113778610051
-4.275,0.0003182858946045794,-0.001564137903265653
-4.27375,0.0003182858946045794,-0.001564137903265958
-4.2725,0.0003182858946045794,-0.001564137903265958
-4.27125,0.0003182858946045794,-0.0008939113778610051
-4.27,0.0003182858946045794,-0.0002236848524555948
-4.26875,0.0003182858946045794,0.0007816549356513777
-4.2675,-1.627970538396967e-05,0.001451881461056331
-4.26625,-1.627970538396967e-05,0.001786994723758655
-4.265,-1.627970538396967e-05,0.001786994723758807
-4.26375,-1.627970538396967e-05,0.001786994723758807
-4.2625,-1.627970538396967e-05,0.001116768198353854
-4.26125,-1.627970538396967e-05,0.0001114284102468818
-4.26,0.0003182858946045794,-0.0005587981151585285
-4.25875,0.0003182858946045794,-0.001229024640563482
-4.2575,0.0003182858946045794,-0.001564137903265958
-4.25625,0.0003182858946045794,-0.001564137903265806
-4.255,0.0003182858946045794,-0.001229024640563482
-4.25375,0.0003182858946045794,-0.0005587981151585285
-4.2525,-1.62797053838175e-05,0.000446541672948444
-4.25125,-1.627970538396967e-05,0.001116768198353854
-4.25,-1.627970538396967e-05,0.001786994723758807
-4.24875,-1.627970538396967e-05,0.002122107986461284
-4.2475,-1.627970538381753e-05,0.001786994723758655
-4.24625,0.0003182858946045794,0.001451881461056331
-4.245,0.0003182858946045794,0.0004465416729489012
-4.24375,0.0003182858946045794,-0.0005587981151580713
-4.2425,0.0003182858946045794,-0.001229024640563482
-4.24125,0.0003182858946045794,-0.001564137903265958
-4.24,0.0003182858946045794,-0.001564137903265958
-4.23875,0.0003182858946045794,-0.001564137903265653
-4.2375,0.0003182858946045794,-0.0008939113778610051
-4.23625,0.0003182858946045794,0.0001114284102464246
-4.235,-1.62797053838175e-05,0.0007816549356510729
-4.23375,0.0003182858946045794,0.001451881461056636
-4.2325,0.0003182858946045794,0.002122107986461284
-4.23125,0.0003182858946045794,0.002122107986461284
-4.23,0.0003182858946045794,0.001451881461056636
-4.22875,0.0003182858946045794,0.0007816549356513777
-4.2275,0.0003182858946045794,-0.000223684852456052
-4.22625,0.0003182858946045794,-0.0008939113778610051
-4.225,0.0003182858946045794,-0.001564137903265958
-4.22375,0.0003182858946045794,-0.001564137903265958
-4.2225,0.0003182858946045794,-0.001564137903265958
-4.22125,0.0003182858946045794,-0.0008939113778613099
-4.22,0.0003182858946045794,-0.000223684852456052
-4.21875,0.0003182858946045794,0.0007816549356513777
-4.2175,0.0003182858946045794,0.001451881461056331
-4.21625,0.0003182858946044272,0.002122107986461284
-4.215,-1.627970538396967e-05,0.002122107986461284
-4.21375,0.0003182858946045794,0.001786994723758807
-4.2125,-1.62797053838175e-05,0.001116768198354159
-4.21125,0.0003182858946045794,0.0001114284102464246
-4.21,0.0003182858946045794,-0.0005587981151585285
-4.20875,0.0003182858946045794,-0.001229024640563482
-4.2075,0.0003182858946045794,-0.001564137903265958
-4.20625,0.0003182858946045794,-0.001564137903265958
-4.205,0.0003182858946045794,-0.001229024640563482
-4.20375,0.0003182858946045794,-0.0005587981151588333
-4.2025,-1.627970538396967e-05,0.000446541672949206
-4.20125,-1.627970538396967e-05,0.001116768198353854
-4.2,-1.627970538396967e-05,0.001786994723758807
-4.19875,-1.627970538396967e-05,0.002122107986461132
-4.1975,-1.627970538396967e-05,0.001786994723758807
-4.19625,-1.627970538396967e-05,0.001451881461056331
-4.195,-1.627970538396967e-05,0.0004465416729489012
-4.19375,0.0003182858946045794,-0.0002236848524565091
-4.1925,0.0003182858946045794,-0.001229024640563482
-4.19125,0.0003182858946045794,-0.001564137903265958
-4.19,0.0003182858946045794,-0.001564137903265958
-4.18875,0.0003182858946045794,-0.001229024640563482
-4.1875,0.0003182858946045794,-0.0008939113778610051
-4.18625,0.0003182858946045794,0.0001114284102464246
-4.185,0.0003182858946044272,0.001116768198354159
-4.18375,-1.627970538396967e-05,0.001786994723758807
-4.1825,-1.627970538396967e-05,0.002122107986461284
-4.18125,-1.627970538396967e-05,0.002122107986461284
-4.18,-1.627970538396967e-05,0.001451881461056331
-4.17875,-1.627970538396967e-05,0.0007816549356513777
-4.1775,-1.627970538396967e-05,0.0001114284102464246
-4.17625,0.0003182858946045794,-0.0008939113778613099
-4.175,0.0003182858946045794,-0.001564137903265958
-4.17375,0.0003182858946045794,-0.001564137903265958
-4.1725,0.0003182858946045794,-0.001564137903265958
-4.17125,0.0003182858946045794,-0.0008939113778607004
-4.17,0.0003182858946045794,-0.000223684852456052
-4.16875,-1.627970538396967e-05,0.0007816549356513777
-4.1675,-1.627970538396967e-05,0.001451881461056026
-4.16625,-1.627970538396967e-05,0.001786994723758807
-4.165,-1.627970538396967e-05,0.002122107986461284
-4.16375,-1.627970538396967e-05,0.001786994723758807
-4.1625,0.0003182858946045794,0.001116768198353397
-4.16125,0.0003182858946045794,0.0001114284102464246
-4.16,0.0003182858946045794,-0.0005587981151585285
-4.15875,0.0003182858946045794,-0.001229024640563177
-4.1575,0.0003182858946045794,-0.001564137903265958
-4.15625,0.0003182858946045794,-0.001564137903265958
-4.155,0.0003182858946045794,-0.001229024640563482
-4.15375,0.0003182858946044272,-0.0005587981151580713
-4.1525,-1.627970538396967e-05,0.0004465416729489012
-4.15125,0.0003182858946045794,0.001116768198353854
-4.15,-1.62797053838175e-05,0.001786994723758502
-4.14875,-1.627970538396967e-05,0.001786994723758807
-4.1475,-1.627970538396967e-05,0.001786994723758807
-4.14625,0.0003182858946045794,0.001451881461056331
-4.145,0.0003182858946045794,0.0004465416729485964
-4.14375,0.0003182858946045794,-0.000223684852456052
-4.1425,0.0003182858946045794,-0.001229024640563482
-4.14125,0.0003182858946045794,-0.001564137903265806
-4.14,0.0003182858946045794,-0.001564137903265806
-4.13875,0.0003182858946045794,-0.001229024640563482
-4.1375,0.0003182858946045794,-0.0005587981151585285
-4.13625,0.0003182858946045794,0.0001114284102461198
-4.135,0.0003182858946045794,0.0007816549356513777
-4.13375,-1.627970538396967e-05,0.001451881461056331
-4.1325,-1.627970538396967e-05,0.001786994723758807
-4.13125,-1.627970538396967e-05,0.001786994723758655
-4.13,-1.627970538396967e-05,0.001451881461056331
-4.12875,0.0003182858946045794,0.0007816549356513777
-4.1275,-1.62797053838175e-05,-0.0002236848524555949
-4.12625,0.0003182858946045794,-0.0008939113778610051
-4.125,0.0003182858946045794,-0.001564137903265958
-4.12375,0.0003182858946045794,-0.001564137903265958
-4.1225,0.0003182858946045794,-0.001564137903265806
-4.12125,0.0003182858946045794,-0.001229024640563482
-4.12,0.0003182858946045794,-0.000223684852456052
-4.11875,-1.62797053838175e-05,0.0004465416729485964
-4.1175,-1.627970538396967e-05,0.001451881461056331
-4.11625,-1.627970538396967e-05,0.001786994723758807
-4.115,-1.627970538396967e-05,0.002122107986461284
-4.11375,-1.627970538396967e-05,0.001786994723758502
-4.1125,-1.627970538396967e-05,0.001116768198353854
-4.11125,0.0003182858946045794,0.0001114284102464246
-4.11,-1.62797053838175e-05,-0.0005587981151582238
-4.10875,-1.627970538396967e-05,-0.001229024640563634
-4.1075,-1.627970538396967e-05,-0.001564137903265958
-4.10625,-1.627970538396967e-05,-0.001564137903265958
-4.105,-1.627970538396967e-05,-0.001229024640563634
-4.10375,-1.627970538396967e-05,-0.0005587981151585285
-4.1025,-1.627970538396967e-05,0.0004465416729489012
-4.10125,-1.627970538396967e-05,0.001116768198353854
-4.1,-1.627970538396967e-05,0.00178699472375896
-4.09875,-1.627970538396967e-05,0.002122107986461284
-4.0975,-1.627970538396967e-05,0.001786994723758807
-4.09625,-1.627970538396967e-05,0.001451881461056483
-4.095,-1.627970538396967e-05,0.0007816549356513777
-4.09375,-1.627970538396967e-05,-0.000223684852456052
-4.0925,0.0003182858946045794,-0.0008939113778610051
-4.09125,-1.627970538381753e-05,-0.001564137903265958
-4.09,0.0003182858946045794,-0.001564137903265958
-4.08875,0.0003182858946045794,-0.001229024640563482
-4.0875,-1.62797053838175e-05,-0.0008939113778611576
-4.08625,-1.627970538396967e-05,0.0001114284102464246
-4.085,-1.627970538396967e-05,0.001116768198353854
-4.08375,-1.627970538396967e-05,0.001451881461056331
-4.0825,-1.627970538396967e-05,0.00178699472375896
-4.08125,-1.627970538396967e-05,0.002122107986461284
-4.08,-1.627970538396967e-05,0.001451881461056331
-4.07875,-1.627970538396967e-05,0.0007816549356516824
-4.0775,0.0003182858946044272,0.0001114284102459674
-4.07625,-1.627970538396967e-05,-0.0008939113778610051
-4.075,0.0003182858946045794,-0.001564137903265958
-4.07375,0.0003182858946045794,-0.001564137903265958
-4.0725,-1.627970538396967e-05,-0.001564137903265958
-4.07125,-1.627970538396967e-05,-0.0008939113778610051
-4.07,-1.627970538396967e-05,-0.000223684852456052
-4.06875,-1.627970538396967e-05,0.0007816549356516824
-4.0675,-1.627970538396967e-05,0.001451881461056331
-4.06625,-1.627970538396967e-05,0.001786994723758807
-4.065,-1.627970538396967e-05,0.002122107986461132
-4.06375,-1.627970538396967e-05,0.001786994723758807
-4.0625,-1.627970538396967e-05,0.001116768198353854
-4.06125,-1.627970538396967e-05,0.0001114284102464246
-4.06,0.0003182858946045794,-0.0005587981151588333
-4.05875,0.0003182858946045794,-0.001229024640563482
-4.0575,0.0003182858946045794,-0.001564137903265958
-4.05625,0.0003182858946045794,-0.001564137903265958
-4.055,-1.627970538396967e-05,-0.001229024640563482
-4.05375,-1.627970538396967e-05,-0.0005587981151585285
-4.0525,-1.627970538396967e-05,0.0004465416729489012
-4.05125,-1.627970538396967e-05,0.001116768198354159
-4.05,-1.627970538396967e-05,0.001786994723758807
-4.04875,-1.627970538396967e-05,0.002122107986461284
-4.0475,-1.627970538396967e-05,0.00178699472375896
-4.04625,-1.627970538396967e-05,0.001451881461055874
-4.045,-1.627970538396967e-05,0.0004465416729489012
-4.04375,0.0003182858946045794,-0.000223684852456052
-4.0425,-1.62797053838175e-05,-0.001229024640563025
-4.04125,0.0003182858946045794,-0.001564137903265958
-4.04,-1.627970538396967e-05,-0.001564137903265958
-4.03875,0.0003182858946045794,-0.001229024640563482
-4.0375,0.0003182858946044272,-0.0008939113778605479
-4.03625,-1.627970538396967e-05,0.0001114284102464246
-4.035,-1.627970538396967e-05,0.0007816549356513777
-4.03375,-1.627970538396967e-05,0.00178699472375835
-4.0325,-1.627970538396967e-05,0.002122107986461284
-4.03125,-1.627970538396967e-05,0.002122107986461284
-4.03,-1.627970538396967e-05,0.001786994723758807
-4.02875,-1.627970538396967e-05,0.0007816549356510729
-4.0275,-1.627970538396967e-05,0.0001114284102464246
-4.02625,-1.627970538396967e-05,-0.0008939113778610051
-4.025,0.0003182858946044272,-0.001564137903265653
-4.02375,-1.627970538396967e-05,-0.001564137903265958
-4.0225,-1.627970538396967e-05,-0.001564137903265958
-4.02125,-1.627970538396967e-05,-0.0008939113778610051
-4.02,-1.627970538396967e-05,-0.0002236848524555948
-4.01875,-1.627970538396967e-05,0.0007816549356513777
-4.0175,-1.627970538396967e-05,0.001451881461056331
-4.01625,-1.627970538396967e-05,0.001786994723758655
-4.015,-1.627970538396967e-05,0.002122107986461132
-4.01375,-1.627970538396967e-05,0.001786994723758807
-4.0125,-1.627970538396967e-05,0.001116768198353854
-4.01125,-1.627970538396967e-05,0.0001114284102468818
-4.01,0.0003182858946045794,-0.0005587981151585285
-4.00875,0.0003182858946045794,-0.001229024640563482
-4.0075,0.0003182858946045794,-0.001564137903265958
-4.00625,0.0003182858946045794,-0.001564137903265806
-4.005,0.0003182858946045794,-0.001229024640563482
-4.00375,-1.627970538396967e-05,-0.0005587981151585285
-4.0025,-1.627970538396967e-05,0.000446541672948444
-4.00125,-1.627970538396967e-05,0.001116768198353854
-4,-1.627970538396967e-05,0.001786994723758807
-3.99875,-1.627970538396967e-05,0.002122107986461284
-3.9975,-1.627970538396967e-05,0.001786994723758807
-3.99625,-1.627970538396967e-05,0.001451881461056331
-3.995,-1.627970538396967e-05,0.0004465416729489012
-3.99375,-1.627970538396967e-05,-0.000223684852456052
-3.9925,0.0003182858946045794,-0.0008939113778610051
-3.99125,0.0003182858946045794,-0.001564137903265958
-3.99,0.0003182858946045794,-0.001564137903265958
-3.98875,0.0003182858946045794,-0.001229024640563482
-3.9875,-1.627970538396967e-05,-0.0008939113778610051
-3.98625,0.0003182858946045794,0.0001114284102464246
-3.985,-1.627970538396967e-05,0.0007816549356513777
-3.98375,-1.627970538396967e-05,0.001451881461056331
-3.9825,-1.627970538396967e-05,0.002122107986461284
-3.98125,-1.627970538396967e-05,0.002122107986461284
-3.98,-1.627970538396967e-05,0.001451881461056331
-3.97875,-1.627970538396967e-05,0.0007816549356513777
-3.9775,-1.627970538396967e-05,0.0001114284102464246
-3.97625,0.0003182858946045794,-0.0008939113778610051
-3.975,0.0003182858946045794,-0.001564137903265958
-3.97375,0.0003182858946045794,-0.001564137903265958
-3.9725,0.0003182858946045794,-0.001564137903265958
-3.97125,0.0003182858946045794,-0.0008939113778610051
-3.97,0.0003182858946045794,-0.000223684852456052
-3.96875,0.0003182858946045794,0.0007816549356513777
-3.9675,-1.627970538396967e-05,0.001451881461056331
-3.96625,-1.627970538396967e-05,0.001786994723758807
-3.965,-1.627970538396967e-05,0.002122107986461284
-3.96375,-1.627970538396967e-05,0.001786994723758807
-3.9625,-1.627970538396967e-05,0.001116768198353854
-3.96125,-1.627970538396967e-05,0.0001114284102464246
-3.96,0.0003182858946045794,-0.0005587981151585285
-3.95875,0.0003182858946045794,-0.001229024640563482
-3.9575,0.0003182858946045794,-0.001564137903265958
-3.95625,-1.627970538396967e-05,-0.001564137903265958
-3.955,0.0003182858946045794,-0.001229024640563482
-3.95375,0.0003182858946045794,-0.0005587981151585285
-3.9525,-1.627970538396967e-05,0.0004465416729489012
-3.95125,-1.627970538396967e-05,0.001116768198353854
-3.95,-1.627970538396967e-05,0.001786994723758807
-3.94875,-1.627970538396967e-05,0.002122107986461284
-3.9475,-1.627970538396967e-05,0.001786994723758807
-3.94625,-1.627970538396967e-05,0.001451881461056331
-3.945,-1.627970538396967e-05,0.0004465416729489012
-3.94375,-1.627970538396967e-05,-0.000223684852456052
-3.9425,0.0003182858946045794,-0.0008939113778610051
-3.94125,-1.627970538396967e-05,-0.001564137903265958
-3.94,-1.627970538396967e-05,-0.001564137903265958
-3.93875,-1.627970538396967e-05,-0.001229024640563482
-3.9375,-1.627970538396967e-05,-0.0008939113778610051
-3.93625,-1.627970538396967e-05,0.0001114284102464246
-3.935,-1.627970538396967e-05,0.0007816549356513777
-3.93375,-1.627970538396967e-05,0.001451881461056331
-3.9325,-1.627970538396967e-05,0.002122107986461284
-3.93125,-1.627970538396967e-05,0.001786994723758807
-3.93,-1.627970538396967e-05,0.001451881461056331
-3.92875,-1.627970538396967e-05,0.0007816549356513777
-3.9275,-1.627970538396967e-05,0.0001114284102464246
-3.92625,-1.627970538396967e-05,-0.0008939113778610051
-3.925,-1.627970538396967e-05,-0.001229024640563482
-3.92375,0.0003182858946045794,-0.001564137903265958
-3.9225,-1.627970538396967e-05,-0.001564137903265958
-3.92125,0.0003182858946045794,-0.0008939113778610051
-3.92,-1.627970538396967e-05,-0.000223684852456052
-3.91875,-1.627970538396967e-05,0.0007816549356513777
-3.9175,-1.627970538396967e-05,0.001451881461056331
-3.91625,-1.627970538396967e-05,0.001786994723758807
-3.915,-1.627970538396967e-05,0.002122107986461284
-3.91375,-1.627970538396967e-05,0.001786994723758807
-3.9125,-1.627970538396967e-05,0.001116768198353854
-3.91125,-1.627970538396967e-05,0.0004465416729489012
-3.91,-1.627970538396967e-05,-0.0005587981151585285
-3.90875,-1.627970538396967e-05,-0.001229024640563482
-3.9075,-1.627970538396967e-05,-0.001564137903265958
-3.90625,-1.627970538396967e-05,-0.001564137903265958
-3.905,-1.627970538396967e-05,-0.001229024640563482
-3.90375,-1.627970538396967e-05,-0.0005587981151585285
-3.9025,-1.627970538396967e-05,0.0004465416729489012
-3.90125,-1.627970538396967e-05,0.001116768198353854
-3.9,-1.627970538396967e-05,0.001786994723758807
-3.89875,-1.627970538396967e-05,0.002122107986461284
-3.8975,-1.627970538396967e-05,0.001786994723758807
-3.89625,-1.627970538396967e-05,0.001451881461056331
-3.895,-1.627970538396967e-05,0.0007816549356513777
-3.89375,-1.627970538396967e-05,-0.000223684852456052
-3.8925,-1.627970538396967e-05,-0.0008939113778610051
-3.89125,-1.627970538396967e-05,-0.001564137903265958
-3.89,0.0003182858946045794,-0.001564137903265958
-3.88875,-1.627970538396967e-05,-0.001229024640563482
-3.8875,-1.627970538396967e-05,-0.0008939113778610051
-3.88625,-1.627970538396967e-05,0.0001114284102464246
-3.885,-1.627970538396967e-05,0.0007816549356513777
-3.88375,-1.627970538396967e-05,0.001786994723758807
-3.8825,-1.627970538396967e-05,0.002122107986461284
-3.88125,-1.627970538396967e-05,0.002122107986461284
-3.88,-1.627970538396967e-05,0.001786994723758807
-3.87875,-1.627970538396967e-05,0.0007816549356513777
-3.8775,-1.627970538396967e-05,0.0001114284102464246
-3.87625,-1.627970538396967e-05,-0.0008939113778610051
-3.875,-1.627970538396967e-05,-0.001229024640563482
-3.87375,-1.627970538396967e-05,-0.001564137903265958
-3.8725,-1.627970538396967e-05,-0.001564137903265958
-3.87125,-1.627970538396967e-05,-0.0008939113778610051
-3.87,-1.627970538396967e-05,-0.000223684852456052
-3.86875,-1.627970538396967e-05,0.0007816549356513777
-3.8675,-1.627970538396967e-05,0.001451881461056331
-3.86625,-1.627970538396967e-05,0.001786994723758807
-3.865,-1.627970538396967e-05,0.002122107986461284
-3.86375,-1.627970538396967e-05,0.001786994723758807
-3.8625,-1.627970538396967e-05,0.001116768198353854
-3.86125,-1.627970538396967e-05,0.0004465416729489012
-3.86,-1.627970538396967e-05,-0.0005587981151585285
-3.85875,-1.627970538396967e-05,-0.001229024640563482
-3.8575,0.0003182858946045794,-0.001564137903265958
-3.85625,-1.627970538396967e-05,-0.001564137903265958
-3.855,-1.627970538396967e-05,-0.001229024640563482
-3.85375,-1.627970538396967e-05,-0.0005587981151585285
-3.8525,-1.627970538396967e-05,0.0004465416729489012
-3.85125,-1.627970538396967e-05,0.001116768198353854
-3.85,-1.627970538396967e-05,0.001786994723758807
-3.84875,-1.627970538396967e-05,0.002122107986461284
-3.8475,-1.627970538396967e-05,0.001786994723758807
-3.84625,-1.627970538396967e-05,0.001451881461056331
-3.845,-1.627970538396967e-05,0.0007816549356513777
-3.84375,-1.627970538396967e-05,-0.000223684852456052
-3.8425,0.0003182858946045794,-0.0008939113778610051
-3.84125,0.0003182858946045794,-0.001564137903265958
-3.84,-1.627970538396967e-05,-0.001564137903265958
-3.83875,-1.627970538396967e-05,-0.001229024640563482
-3.8375,-1.627970538396967e-05,-0.0008939113778610051
-3.83625,-1.627970538396967e-05,0.0001114284102464246
-3.835,-1.627970538396967e-05,0.0007816549356513777
-3.83375,-1.627970538396967e-05,0.001451881461056331
-3.8325,-1.627970538396967e-05,0.002122107986461284
-3.83125,-1.627970538396967e-05,0.002122107986461284
-3.83,-1.627970538396967e-05,0.001786994723758807
-3.82875,-1.627970538396967e-05,0.0007816549356513777
-3.8275,-1.627970538396967e-05,0.0001114284102464246
-3.82625,-1.627970538396967e-05,-0.0008939113778610051
-3.825,-1.627970538396967e-05,-0.001564137903265958
-3.82375,-1.627970538396967e-05,-0.001564137903265958
-3.8225,-1.627970538396967e-05,-0.001564137903265958
-3.82125,-1.627970538396967e-05,-0.0008939113778610051
-3.82,-1.627970538396967e-05,-0.000223684852456052
-3.81875,-1.627970538396967e-05,0.0007816549356513777
-3.8175,-1.627970538396967e-05,0.001451881461056331
-3.81625,-1.627970538396967e-05,0.001786994723758807
-3.815,-1.627970538396967e-05,0.002122107986461284
-3.81375,-1.627970538396967e-05,0.001786994723758807
-3.8125,-1.627970538396967e-05,0.001116768198353854
-3.81125,-1.627970538396967e-05,0.0004465416729489012
-3.81,-1.627970538396967e-05,-0.0005587981151585285
-3.80875,-1.627970538396967e-05,-0.001229024640563482
-3.8075,-1.627970538396967e-05,-0.001564137903265958
-3.80625,-1.627970538396967e-05,-0.001564137903265958
-3.805,-1.627970538396967e-05,-0.001229024640563482
-3.80375,-1.627970538396967e-05,-0.0005587981151585285
-3.8025,-1.627970538396967e-05,0.0004465416729489012
-3.80125,-1.627970538396967e-05,0.001116768198353854
-3.8,-1.627970538396967e-05,0.001786994723758807
-3.79875,-1.627970538396967e-05,0.002122107986461284
-3.7975,-1.627970538396967e-05,0.001786994723758807
-3.79625,-1.627970538396967e-05,0.001451881461056331
-3.795,-1.627970538396967e-05,0.0004465416729489012
-3.79375,-1.627970538396967e-05,-0.000223684852456052
-3.7925,-1.627970538396967e-05,-0.0008939113778610051
-3.79125,0.0003182858946045794,-0.001564137903265958
-3.79,0.0003182858946045794,-0.001564137903265958
-3.78875,0.0003182858946045794,-0.001564137903265958
-3.7875,0.0003182858946045794,-0.0008939113778610051
-3.78625,-1.627970538396967e-05,0.0001114284102464246
-3.785,-1.627970538396967e-05,0.0007816549356513777
-3.78375,-1.627970538396967e-05,0.001786994723758807
-3.7825,-1.627970538396967e-05,0.002122107986461284
-3.78125,-1.627970538396967e-05,0.001786994723758807
-3.78,-1.627970538396967e-05,0.001451881461056331
-3.77875,-1.627970538396967e-05,0.0007816549356513777
-3.7775,-1.627970538396967e-05,0.0001114284102464246
-3.77625,-1.627970538396967e-05,-0.0008939113778610051
-3.775,-1.627970538396967e-05,-0.001564137903265958
-3.77375,0.0003182858946045794,-0.001564137903265958
-3.7725,0.0003182858946045794,-0.001564137903265958
-3.77125,0.0003182858946045794,-0.0008939113778610051
-3.77,-1.627970538396967e-05,-0.000223684852456052
-3.76875,-1.627970538396967e-05,0.0007816549356513777
-3.7675,-1.627970538396967e-05,0.001451881461056331
-3.76625,-1.627970538396967e-05,0.001786994723758807
-3.765,-1.627970538396967e-05,0.002122107986461284
-3.76375,-1.627970538396967e-05,0.001786994723758807
-3.7625,-1.627970538396967e-05,0.001116768198353854
-3.76125,-1.627970538396967e-05,0.0004465416729489012
-3.76,-1.627970538396967e-05,-0.0005587981151585285
-3.75875,-1.627970538396967e-05,-0.001229024640563482
-3.7575,0.0003182858946045794,-0.001564137903265958
-3.75625,0.0003182858946045794,-0.001564137903265958
-3.755,0.0003182858946045794,-0.001229024640563482
-3.75375,-1.627970538396967e-05,-0.0005587981151585285
-3.7525,-1.627970538396967e-05,0.0004465416729489012
-3.75125,-1.627970538396967e-05,0.001116768198353854
-3.75,-1.627970538396967e-05,0.001786994723758807
-3.74875,-1.627970538396967e-05,0.002122107986461284
-3.7475,-1.627970538396967e-05,0.001786994723758807
-3.74625,-1.627970538396967e-05,0.001451881461056331
-3.745,-1.627970538396967e-05,0.0004465416729489012
-3.74375,-1.627970538396967e-05,-0.000223684852456052
-3.7425,-1.627970538396967e-05,-0.0008939113778610051
-3.74125,-1.627970538396967e-05,-0.001564137903265958
-3.74,0.0003182858946045794,-0.001564137903265958
-3.73875,0.0003182858946045794,-0.001229024640563482
-3.7375,0.0003182858946045794,-0.0008939113778610051
-3.73625,-1.627970538396967e-05,0.0001114284102464246
-3.735,-1.627970538396967e-05,0.0007816549356513777
-3.73375,-1.627970538396967e-05,0.001786994723758807
-3.7325,-1.627970538396967e-05,0.002122107986461284
-3.73125,-1.627970538396967e-05,0.002122107986461284
-3.73,-1.627970538396967e-05,0.001786994723758807
-3.72875,-1.627970538396967e-05,0.0007816549356513777
-3.7275,-1.627970538396967e-05,0.0001114284102464246
-3.72625,0.0003182858946045794,-0.0005587981151585285
-3.725,0.0003182858946045794,-0.001229024640563482
-3.72375,0.0003182858946045794,-0.001564137903265958
-3.7225,0.0003182858946045794,-0.001564137903265958
-3.72125,0.0003182858946045794,-0.0008939113778610051
-3.72,0.0003182858946045794,-0.000223684852456052
-3.71875,-1.627970538396967e-05,0.0007816549356513777
-3.7175,-1.627970538396967e-05,0.001451881461056331
-3.71625,-1.627970538396967e-05,0.001786994723758807
-3.715,-1.627970538396967e-05,0.002122107986461284
-3.71375,-1.627970538396967e-05,0.001786994723758807
-3.7125,-1.627970538396967e-05,0.001116768198353854
-3.71125,-1.627970538396967e-05,0.0004465416729489012
-3.71,-1.627970538396967e-05,-0.0005587981151585285
-3.70875,-1.627970538396967e-05,-0.001229024640563482
-3.7075,-1.627970538396967e-05,-0.001564137903265958
-3.70625,0.0003182858946045794,-0.001564137903265958
-3.705,-1.627970538396967e-05,-0.001229024640563482
-3.70375,-1.627970538396967e-05,-0.0005587981151585285
-3.7025,-1.627970538396967e-05,0.0004465416729489012
-3.70125,-1.627970538396967e-05,0.001116768198353854
-3.7,-1.627970538396967e-05,0.001786994723758807
-3.69875,-1.627970538396967e-05,0.002122107986461284
-3.6975,-1.627970538396967e-05,0.002122107986461284
-3.69625,-1.627970538396967e-05,0.001451881461056331
-3.695,-1.627970538396967e-05,0.0007816549356513777
-3.69375,-1.627970538396967e-05,-0.000223684852456052
-3.6925,-1.627970538396967e-05,-0.0008939113778610051
-3.69125,-1.627970538396967e-05,-0.001564137903265958
-3.69,0.0003182858946045794,-0.001564137903265958
-3.68875,-1.627970538396967e-05,-0.001229024640563482
-3.6875,0.0003182858946045794,-0.0008939113778610051
-3.68625,0.0003182858946045794,0.0001114284102464246
-3.685,-1.627970538396967e-05,0.0007816549356513777
-3.68375,-1.627970538396967e-05,0.001451881461056331
-3.6825,-1.627970538396967e-05,0.002122107986461284
-3.68125,-1.627970538396967e-05,0.002122107986461284
-3.68,-1.627970538396967e-05,0.001786994723758807
-3.67875,-1.627970538396967e-05,0.0007816549356513777
-3.6775,-1.627970538396967e-05,0.0001114284102464246
-3.67625,-1.627970538396967e-05,-0.0005587981151585285
-3.675,-1.627970538396967e-05,-0.001229024640563482
-3.67375,-1.627970538396967e-05,-0.001564137903265958
-3.6725,-1.627970538396967e-05,-0.001564137903265958
-3.67125,-1.627970538396967e-05,-0.0008939113778610051
-3.67,-1.627970538396967e-05,-0.000223684852456052
-3.66875,-1.627970538396967e-05,0.0004465416729489012
-3.6675,-1.627970538396967e-05,0.001451881461056331
-3.66625,-1.627970538396967e-05,0.001786994723758807
-3.665,-1.627970538396967e-05,0.002122107986461284
-3.66375,-1.627970538396967e-05,0.001786994723758807
-3.6625,-1.627970538396967e-05,0.001116768198353854
-3.66125,-1.627970538396967e-05,0.0004465416729489012
-3.66,-1.627970538396967e-05,-0.000223684852456052
-3.65875,-1.627970538396967e-05,-0.001229024640563482
-3.6575,0.0003182858946045794,-0.001564137903265958
-3.65625,0.0003182858946045794,-0.001564137903265958
-3.655,0.0003182858946045794,-0.001229024640563482
-3.65375,0.0003182858946045794,-0.0005587981151585285
-3.6525,-1.627970538396967e-05,0.0004465416729489012
-3.65125,-1.627970538396967e-05,0.001116768198353854
-3.65,-1.627970538396967e-05,0.001786994723758807
-3.64875,-1.627970538396967e-05,0.002122107986461284
-3.6475,-1.627970538396967e-05,0.001786994723758807
-3.64625,-1.627970538396967e-05,0.001451881461056331
-3.645,-1.627970538396967e-05,0.0007816549356513777
-3.64375,-1.627970538396967e-05,-0.000223684852456052
-3.6425,0.0003182858946045794,-0.0008939113778610051
-3.64125,0.0003182858946045794,-0.001564137903265958
-3.64,0.0003182858946045794,-0.001564137903265958
-3.63875,0.0003182858946045794,-0.001229024640563482
-3.6375,0.0003182858946045794,-0.0005587981151585285
-3.63625,-1.627970538396967e-05,0.0001114284102464246
-3.635,-1.627970538396967e-05,0.0007816549356513777
-3.63375,-1.627970538396967e-05,0.001786994723758807
-3.6325,-1.627970538396967e-05,0.002122107986461284
-3.63125,-1.627970538396967e-05,0.002122107986461284
-3.63,-1.627970538396967e-05,0.001451881461056331
-3.62875,-1.627970538396967e-05,0.0007816549356513777
-3.6275,-1.627970538396967e-05,0.0001114284102464246
-3.62625,-1.627970538396967e-05,-0.0005587981151585285
-3.625,0.0003182858946045794,-0.001229024640563482
-3.62375,0.0003182858946045794,-0.001564137903265958
-3.6225,0.0003182858946045794,-0.001564137903265958
-3.62125,0.0003182858946045794,-0.0008939113778610051
-3.62,0.0003182858946045794,-0.000223684852456052
-3.61875,0.0003182858946045794,0.0004465416729489012
-3.6175,-1.627970538396967e-05,0.001451881461056331
-3.61625,-1.627970538396967e-05,0.001786994723758807
-3.615,-1.627970538396967e-05,0.002122107986461284
-3.61375,-1.627970538396967e-05,0.001786994723758807
-3.6125,-1.627970538396967e-05,0.001116768198353854
-3.61125,-1.627970538396967e-05,0.0004465416729489012
-3.61,0.0003182858946045794,-0.0005587981151585285
-3.60875,0.0003182858946045794,-0.001229024640563482
-3.6075,0.0003182858946045794,-0.001564137903265958
-3.60625,0.0003182858946045794,-0.001564137903265958
-3.605,0.0003182858946045794,-0.001229024640563482
-3.60375,0.0003182858946045794,-0.0005587981151585285
-3.6025,0.0003182858946045794,0.0004465416729489012
-3.60125,-1.627970538396967e-05,0.001116768198353854
-3.6,-1.627970538396967e-05,0.001786994723758807
-3.59875,-1.627970538396967e-05,0.002122107986461284
-3.5975,-1.627970538396967e-05,0.001786994723758807
-3.59625,-1.627970538396967e-05,0.001451881461056331
-3.595,0.0003182858946045794,0.0007816549356513777
-3.59375,0.0003182858946045794,-0.000223684852456052
-3.5925,0.0003182858946045794,-0.0008939113778610051
-3.59125,0.0003182858946045794,-0.001564137903265958
-3.59,0.0003182858946045794,-0.001564137903265958
-3.58875,0.0003182858946045794,-0.001229024640563482
-3.5875,0.0003182858946045794,-0.0008939113778610051
-3.58625,0.0003182858946045794,0.0001114284102464246
-3.585,0.0003182858946045794,0.0007816549356513777
-3.58375,0.0003182858946045794,0.001451881461056331
-3.5825,0.0003182858946045794,0.002122107986461284
-3.58125,-1.627970538396967e-05,0.002122107986461284
-3.58,0.0003182858946045794,0.001786994723758807
-3.57875,0.0003182858946045794,0.001116768198353854
-3.5775,0.0003182858946045794,0.0001114284102464246
-3.57625,0.0003182858946045794,-0.0008939113778610051
-3.575,0.0003182858946045794,-0.001229024640563482
-3.57375,0.0003182858946045794,-0.001564137903265958
-3.5725,0.0003182858946045794,-0.001564137903265958
-3.57125,0.0003182858946045794,-0.0008939113778610051
-3.57,0.0003182858946045794,-0.000223684852456052
-3.56875,0.0003182858946045794,0.0004465416729489012
-3.5675,-1.627970538396967e-05,0.001451881461056331
-3.56625,-1.627970538396967e-05,0.001786994723758807
-3.565,-1.627970538396967e-05,0.002122107986461284
-3.56375,-1.627970538396967e-05,0.001786994723758807
-3.5625,0.0003182858946045794,0.001116768198353854
-3.56125,0.0003182858946045794,0.0004465416729489012
-3.56,0.0003182858946045794,-0.0005587981151585285
-3.55875,0.0003182858946045794,-0.001229024640563482
-3.5575,0.0003182858946045794,-0.001564137903265958
-3.55625,0.0003182858946045794,-0.001564137903265958
-3.555,0.0003182858946045794,-0.001229024640563482
-3.55375,0.0003182858946045794,-0.0005587981151585285
-3.5525,0.0003182858946045794,0.0004465416729489012
-3.55125,-1.627970538396967e-05,0.001116768198353854
-3.55,-1.627970538396967e-05,0.001786994723758807
-3.54875,-1.627970538396967e-05,0.002122107986461284
-3.5475,0.0003182858946045794,0.001786994723758807
-3.54625,-1.627970538396967e-05,0.001451881461056331
-3.545,0.0003182858946045794,0.0007816549356513777
-3.54375,0.0003182858946045794,-0.000223684852456052
-3.5425,0.0003182858946045794,-0.0008939113778610051
-3.54125,0.0003182858946045794,-0.001564137903265958
-3.54,0.0003182858946045794,-0.001564137903265958
-3.53875,0.0003182858946045794,-0.001564137903265958
-3.5375,0.0003182858946045794,-0.0008939113778610051
-3.53625,-1.627970538396967e-05,-0.000223684852456052
-3.535,-1.627970538396967e-05,0.0007816549356513777
-3.53375,-1.627970538396967e-05,0.001451881461056331
-3.5325,-1.627970538396967e-05,0.001786994723758807
-3.53125,-1.627970538396967e-05,0.001786994723758807
-3.53,-1.627970538396967e-05,0.001451881461056331
-3.52875,-1.627970538396967e-05,0.0007816549356513777
-3.5275,0.0003182858946045794,0.0001114284102464246
-3.52625,0.0003182858946045794,-0.0008939113778610051
-3.525,0.0003182858946045794,-0.001564137903265958
-3.52375,0.0003182858946045794,-0.001564137903265958
-3.5225,0.0003182858946045794,-0.001564137903265958
-3.52125,0.0003182858946045794,-0.001229024640563482
-3.52,0.0003182858946045794,-0.000223684852456052
-3.51875,0.0003182858946045794,0.0004465416729489012
-3.5175,0.0003182858946045794,0.001451881461056331
-3.51625,-1.627970538396967e-05,0.001786994723758807
-3.515,-1.627970538396967e-05,0.002122107986461284
-3.51375,-1.627970538396967e-05,0.001786994723758807
-3.5125,0.0003182858946045794,0.001116768198353854
-3.51125,0.0003182858946045794,0.0004465416729489012
-3.51,0.0003182858946045794,-0.0005587981151585285
-3.50875,0.0003182858946045794,-0.001229024640563482
-3.5075,0.0003182858946045794,-0.001564137903265958
-3.50625,0.0003182858946045794,-0.001564137903265958
-3.505,0.0003182858946045794,-0.001229024640563482
-3.50375,0.0003182858946045794,-0.0005587981151585285
-3.5025,0.0003182858946045794,0.0004465416729489012
-3.50125,0.0003182858946045794,0.001116768198353854
-3.5,-1.627970538396967e-05,0.001786994723758807
-3.49875,-1.627970538396967e-05,0.001786994723758807
-3.4975,-1.627970538396967e-05,0.001786994723758807
-3.49625,-1.627970538396967e-05,0.001451881461056331
-3.495,-1.627970538396967e-05,0.0004465416729489012
-3.49375,-1.627970538396967e-05,-0.000223684852456052
-3.4925,0.0003182858946045794,-0.0008939113778610051
-3.49125,0.0003182858946045794,-0.001564137903265958
-3.49,0.0003182858946045794,-0.001564137903265958
-3.48875,0.0003182858946045794,-0.001564137903265958
-3.4875,0.0003182858946045794,-0.0008939113778610051
-3.48625,0.0003182858946045794,0.0001114284102464246
-3.485,0.0003182858946045794,0.0007816549356513777
-3.48375,0.0003182858946045794,0.001451881461056331
-3.4825,-1.627970538396967e-05,0.002122107986461284
-3.48125,0.0003182858946045794,0.001786994723758807
-3.48,-1.627970538396967e-05,0.001451881461056331
-3.47875,0.0003182858946045794,0.0007816549356513777
-3.4775,0.0003182858946045794,0.0001114284102464246
-3.47625,0.0003182858946045794,-0.0005587981151585285
-3.475,0.0003182858946045794,-0.001229024640563482
-3.47375,0.0003182858946045794,-0.001564137903265958
-3.4725,0.0003182858946045794,-0.001564137903265958
-3.47125,0.0003182858946045794,-0.001229024640563482
-3.47,0.0003182858946045794,-0.000223684852456052
-3.46875,0.0003182858946045794,0.0004465416729489012
-3.4675,-1.627970538396967e-05,0.001116768198353854
-3.46625,-1.627970538396967e-05,0.001786994723758807
-3.465,-1.627970538396967e-05,0.002122107986461284
-3.46375,-1.627970538396967e-05,0.001786994723758807
-3.4625,-1.627970538396967e-05,0.001116768198353854
-3.46125,0.0003182858946045794,0.0001114284102464246
-3.46,0.0003182858946045794,-0.0005587981151585285
-3.45875,0.0003182858946045794,-0.001229024640563482
-3.4575,0.0003182858946045794,-0.001564137903265958
-3.45625,0.0003182858946045794,-0.001564137903265958
-3.455,0.0003182858946045794,-0.001229024640563482
-3.45375,0.0003182858946045794,-0.0005587981151585285
-3.4525,-1.627970538396967e-05,0.0004465416729489012
-3.45125,-1.627970538396967e-05,0.001116768198353854
-3.45,0.0003182858946045794,0.001786994723758807
-3.44875,0.0003182858946045794,0.002122107986461284
-3.4475,0.0003182858946045794,0.001786994723758807
-3.44625,-1.627970538396967e-05,0.001451881461056331
-3.445,0.0003182858946045794,0.0007816549356513777
-3.44375,0.0003182858946045794,-0.000223684852456052
-3.4425,-1.627970538396967e-05,-0.0008939113778610051
-3.44125,0.0003182858946045794,-0.001564137903265958
-3.44,0.0003182858946045794,-0.001564137903265958
-3.43875,0.0003182858946045794,-0.001229024640563482
-3.4375,0.0003182858946045794,-0.0008939113778610051
-3.43625,0.0003182858946045794,0.0001114284102464246
-3.435,-1.627970538396967e-05,0.0007816549356513777
-3.43375,-1.627970538396967e-05,0.001451881461056331
-3.4325,-1.627970538396967e-05,0.002122107986461284
-3.43125,-1.627970538396967e-05,0.002122107986461284
-3.43,-1.627970538396967e-05,0.001786994723758807
-3.42875,0.0003182858946045794,0.001116768198353854
-3.4275,-1.627970538396967e-05,0.0001114284102464246
-3.42625,-1.627970538396967e-05,-0.0005587981151585285
-3.425,0.0003182858946045794,-0.001229024640563482
-3.42375,0.0003182858946045794,-0.001564137903265958
-3.4225,0.0003182858946045794,-0.001564137903265958
-3.42125,0.0003182858946045794,-0.0008939113778610051
-3.42,0.0003182858946045794,-0.000223684852456052
-3.41875,-1.627970538396967e-05,0.0007816549356513777
-3.4175,-1.627970538396967e-05,0.001451881461056331
-3.41625,-1.627970538396967e-05,0.002122107986461284
-3.415,-1.627970538396967e-05,0.002122107986461284
-3.41375,-1.627970538396967e-05,0.001786994723758807
-3.4125,-1.627970538396967e-05,0.001451881461056331
-3.41125,-1.627970538396967e-05,0.0004465416729489012
-3.41,0.0003182858946045794,-0.000223684852456052
-3.40875,0.0003182858946045794,-0.001229024640563482
-3.4075,0.0003182858946045794,-0.001564137903265958
-3.40625,0.0003182858946045794,-0.001564137903265958
-3.405,0.0003182858946045794,-0.001229024640563482
-3.40375,0.0003182858946045794,-0.0005587981151585285
-3.4025,-1.627970538396967e-05,0.0004465416729489012
-3.40125,-1.627970538396967e-05,0.001116768198353854
-3.4,0.0003182858946045794,0.001786994723758807
-3.39875,0.0003182858946045794,0.002122107986461284
-3.3975,0.0003182858946045794,0.002122107986461284
-3.39625,0.0003182858946045794,0.001451881461056331
-3.395,-1.627970538396967e-05,0.0007816549356513777
-3.39375,0.0003182858946045794,-0.000223684852456052
-3.3925,-1.627970538396967e-05,-0.0008939113778610051
-3.39125,0.0003182858946045794,-0.001564137903265958
-3.39,0.0003182858946045794,-0.001564137903265958
-3.38875,0.0003182858946045794,-0.001229024640563482
-3.3875,0.0003182858946045794,-0.0008939113778610051
-3.38625,-1.627970538396967e-05,0.0001114284102464246
-3.385,-1.627970538396967e-05,0.0007816549356513777
-3.38375,-1.627970538396967e-05,0.001451881461056331
-3.3825,-1.627970538396967e-05,0.002122107986461284
-3.38125,-1.627970538396967e-05,0.002122107986461284
-3.38,-1.627970538396967e-05,0.001786994723758807
-3.37875,-1.627970538396967e-05,0.001116768198353854
-3.3775,-1.627970538396967e-05,0.0001114284102464246
-3.37625,0.0003182858946045794,-0.0005587981151585285
-3.375,0.0003182858946045794,-0.001229024640563482
-3.37375,0.0003182858946045794,-0.001564137903265958
-3.3725,0.0003182858946045794,-0.001564137903265958
-3.37125,0.0003182858946045794,-0.001229024640563482
-3.37,0.0003182858946045794,-0.000223684852456052
-3.36875,0.0003182858946045794,0.0004465416729489012
-3.3675,-1.627970538396967e-05,0.001451881461056331
-3.36625,-1.627970538396967e-05,0.001786994723758807
-3.365,-1.627970538396967e-05,0.002122107986461284
-3.36375,-1.627970538396967e-05,0.001786994723758807
-3.3625,0.0003182858946045794,0.001116768198353854
-3.36125,-1.627970538396967e-05,0.0004465416729489012
-3.36,-1.627970538396967e-05,-0.000223684852456052
-3.35875,0.0003182858946045794,-0.001229024640563482
-3.3575,-1.627970538396967e-05,-0.001564137903265958
-3.35625,-1.627970538396967e-05,-0.001564137903265958
-3.355,0.0003182858946045794,-0.001229024640563482
-3.35375,0.0003182858946045794,-0.0005587981151585285
-3.3525,0.0003182858946045794,0.0004465416729489012
-3.35125,-1.627970538396967e-05,0.001116768198353854
-3.35,-1.627970538396967e-05,0.001786994723758807
-3.34875,-1.627970538396967e-05,0.002122107986461284
-3.3475,-1.627970538396967e-05,0.002122107986461284
-3.34625,-1.627970538396967e-05,0.001451881461056331
-3.345,0.0003182858946045794,0.0007816549356513777
-3.34375,0.0003182858946045794,-0.000223684852456052
-3.3425,-1.627970538396967e-05,-0.0008939113778610051
-3.34125,0.0003182858946045794,-0.001229024640563482
-3.34,0.0003182858946045794,-0.001564137903265958
-3.33875,0.0003182858946045794,-0.001229024640563482
-3.3375,0.0003182858946045794,-0.0008939113778610051
-3.33625,-1.627970538396967e-05,0.0001114284102464246
-3.335,-1.627970538396967e-05,0.0007816549356513777
-3.33375,-1.627970538396967e-05,0.001451881461056331
-3.3325,-1.627970538396967e-05,0.001786994723758807
-3.33125,-1.627970538396967e-05,0.002122107986461284
-3.33,-1.627970538396967e-05,0.001786994723758807
-3.32875,-1.627970538396967e-05,0.001116768198353854
-3.3275,-1.627970538396967e-05,0.0001114284102464246
-3.32625,0.0003182858946045794,-0.0005587981151585285
-3.325,-1.627970538396967e-05,-0.001229024640563482
-3.32375,0.0003182858946045794,-0.001564137903265958
-3.3225,0.0003182858946045794,-0.001564137903265958
-3.32125,-1.627970538396967e-05,-0.001229024640563482
-3.32,-1.627970538396967e-05,-0.000223684852456052
-3.31875,-1.627970538396967e-05,0.0004465416729489012
-3.3175,-1.627970538396967e-05,0.001451881461056331
-3.31625,-1.627970538396967e-05,0.001786994723758807
-3.315,-1.627970538396967e-05,0.002122107986461284
-3.31375,-1.627970538396967e-05,0.001786994723758807
-3.3125,-1.627970538396967e-05,0.001116768198353854
-3.31125,-1.627970538396967e-05,0.0004465416729489012
-3.31,-1.627970538396967e-05,-0.000223684852456052
-3.30875,-1.627970538396967e-05,-0.001229024640563482
-3.3075,-1.627970538396967e-05,-0.001564137903265958
-3.30625,-1.627970538396967e-05,-0.001564137903265958
-3.305,0.0003182858946045794,-0.001229024640563482
-3.30375,-1.627970538396967e-05,-0.0005587981151585285
-3.3025,-1.627970538396967e-05,0.0004465416729489012
-3.30125,-1.627970538396967e-05,0.001116768198353854
-3.3,-1.627970538396967e-05,0.001786994723758807
-3.29875,-1.627970538396967e-05,0.002122107986461284
-3.2975,-1.627970538396967e-05,0.002122107986461284
-3.29625,-1.627970538396967e-05,0.001451881461056331
-3.295,-1.627970538396967e-05,0.0007816549356513777
-3.29375,-1.627970538396967e-05,-0.000223684852456052
-3.2925,-1.627970538396967e-05,-0.0008939113778610051
-3.29125,-1.627970538396967e-05,-0.001564137903265958
-3.29,-1.627970538396967e-05,-0.001564137903265958
-3.28875,-1.627970538396967e-05,-0.001229024640563482
-3.2875,-1.627970538396967e-05,-0.0008939113778610051
-3.28625,-1.627970538396967e-05,0.0001114284102464246
-3.285,-1.627970538396967e-05,0.0007816549356513777
-3.28375,-1.627970538396967e-05,0.001451881461056331
-3.2825,-1.627970538396967e-05,0.002122107986461284
-3.28125,-1.627970538396967e-05,0.002122107986461284
-3.28,-1.627970538396967e-05,0.001786994723758807
-3.27875,-1.627970538396967e-05,0.001116768198353854
-3.2775,-1.627970538396967e-05,0.0001114284102464246
-3.27625,-1.627970538396967e-05,-0.0005587981151585285
-3.275,-1.627970538396967e-05,-0.001229024640563482
-3.27375,0.0003182858946045794,-0.001564137903265958
-3.2725,0.0003182858946045794,-0.001564137903265958
-3.27125,0.0003182858946045794,-0.0008939113778610051
-3.27,-1.627970538396967e-05,-0.000223684852456052
-3.26875,-1.627970538396967e-05,0.0004465416729489012
-3.2675,-1.627970538396967e-05,0.001451881461056331
-3.26625,-1.627970538396967e-05,0.001786994723758807
-3.265,-1.627970538396967e-05,0.002122107986461284
-3.26375,-1.627970538396967e-05,0.001786994723758807
-3.2625,-1.627970538396967e-05,0.001451881461056331
-3.26125,-1.627970538396967e-05,0.0004465416729489012
-3.26,-1.627970538396967e-05,-0.000223684852456052
-3.25875,-1.627970538396967e-05,-0.0008939113778610051
-3.2575,-1.627970538396967e-05,-0.001564137903265958
-3.25625,-1.627970538396967e-05,-0.001564137903265958
-3.255,-1.627970538396967e-05,-0.001229024640563482
-3.25375,-1.627970538396967e-05,-0.0005587981151585285
-3.2525,-1.627970538396967e-05,0.0004465416729489012
-3.25125,-1.627970538396967e-05,0.001116768198353854
-3.25,-1.627970538396967e-05,0.001786994723758807
-3.24875,-1.627970538396967e-05,0.002122107986461284
-3.2475,-1.627970538396967e-05,0.002122107986461284
-3.24625,-1.627970538396967e-05,0.001451881461056331
-3.245,-1.627970538396967e-05,0.0007816549356513777
-3.24375,-1.627970538396967e-05,-0.000223684852456052
-3.2425,-1.627970538396967e-05,-0.0008939113778610051
-3.24125,-1.627970538396967e-05,-0.001564137903265958
-3.24,0.0003182858946045794,-0.001564137903265958
-3.23875,-1.627970538396967e-05,-0.001229024640563482
-3.2375,-1.627970538396967e-05,-0.0008939113778610051
-3.23625,-1.627970538396967e-05,0.0001114284102464246
-3.235,-1.627970538396967e-05,0.0007816549356513777
-3.23375,-1.627970538396967e-05,0.001451881461056331
-3.2325,-1.627970538396967e-05,0.002122107986461284
-3.23125,-1.627970538396967e-05,0.002122107986461284
-3.23,-1.627970538396967e-05,0.001786994723758807
-3.22875,-1.627970538396967e-05,0.001116768198353854
-3.2275,-1.627970538396967e-05,0.0001114284102464246
-3.22625,-1.627970538396967e-05,-0.0005587981151585285
-3.225,0.0003182858946045794,-0.001229024640563482
-3.22375,-1.627970538396967e-05,-0.001564137903265958
-3.2225,-1.627970538396967e-05,-0.001564137903265958
-3.22125,-1.627970538396967e-05,-0.001229024640563482
-3.22,-1.627970538396967e-05,-0.000223684852456052
-3.21875,-1.627970538396967e-05,0.0004465416729489012
-3.2175,-1.627970538396967e-05,0.001451881461056331
-3.21625,-1.627970538396967e-05,0.002122107986461284
-3.215,-1.627970538396967e-05,0.002122107986461284
-3.21375,-1.627970538396967e-05,0.001786994723758807
-3.2125,-1.627970538396967e-05,0.001451881461056331
-3.21125,-1.627970538396967e-05,0.0004465416729489012
-3.21,-1.627970538396967e-05,-0.000223684852456052
-3.20875,-1.627970538396967e-05,-0.001229024640563482
-3.2075,-1.627970538396967e-05,-0.001564137903265958
-3.20625,-1.627970538396967e-05,-0.001564137903265958
-3.205,-1.627970538396967e-05,-0.001229024640563482
-3.20375,-1.627970538396967e-05,-0.0005587981151585285
-3.2025,-1.627970538396967e-05,0.0004465416729489012
-3.20125,-1.627970538396967e-05,0.001116768198353854
-3.2,-1.627970538396967e-05,0.001786994723758807
-3.19875,-1.627970538396967e-05,0.002122107986461284
-3.1975,-1.627970538396967e-05,0.001786994723758807
-3.19625,-1.627970538396967e-05,0.001451881461056331
-3.195,-1.627970538396967e-05,0.0007816549356513777
-3.19375,-1.627970538396967e-05,-0.000223684852456052
-3.1925,-1.627970538396967e-05,-0.0008939113778610051
-3.19125,-1.627970538396967e-05,-0.001229024640563482
-3.19,0.0003182858946045794,-0.001564137903265958
-3.18875,0.0003182858946045794,-0.001229024640563482
-3.1875,-1.627970538396967e-05,-0.0008939113778610051
-3.18625,-1.627970538396967e-05,0.0001114284102464246
-3.185,-1.627970538396967e-05,0.0007816549356513777
-3.18375,-1.627970538396967e-05,0.001451881461056331
-3.1825,-1.627970538396967e-05,0.002122107986461284
-3.18125,-1.627970538396967e-05,0.002122107986461284
-3.18,-1.627970538396967e-05,0.001786994723758807
-3.17875,-1.627970538396967e-05,0.001116768198353854
-3.1775,0.0003182858946045794,0.0001114284102464246
-3.17625,-1.627970538396967e-05,-0.0005587981151585285
-3.175,0.0003182858946045794,-0.001229024640563482
-3.17375,-1.627970538396967e-05,-0.001564137903265958
-3.1725,-1.627970538396967e-05,-0.001564137903265958
-3.17125,-1.627970538396967e-05,-0.0008939113778610051
-3.17,-1.627970538396967e-05,-0.000223684852456052
-3.16875,-1.627970538396967e-05,0.0004465416729489012
-3.1675,-1.627970538396967e-05,0.001451881461056331
-3.16625,-1.627970538396967e-05,0.001786994723758807
-3.165,-1.627970538396967e-05,0.002122107986461284
-3.16375,-1.627970538396967e-05,0.001786994723758807
-3.1625,-1.627970538396967e-05,0.001116768198353854
-3.16125,-1.627970538396967e-05,0.0004465416729489012
-3.16,0.0003182858946045794,-0.000223684852456052
-3.15875,0.0003182858946045794,-0.001229024640563482
-3.1575,0.0003182858946045794,-0.001564137903265958
-3.15625,0.0003182858946045794,-0.001564137903265958
-3.155,0.0003182858946045794,-0.001229024640563482
-3.15375,0.0003182858946045794,-0.0005587981151585285
-3.1525,0.0003182858946045794,0.0004465416729489012
-3.15125,-1.627970538396967e-05,0.001116768198353854
-3.15,-1.627970538396967e-05,0.001786994723758807
-3.14875,-1.627970538396967e-05,0.002122107986461284
-3.1475,0.0003182858946045794,0.002122107986461284
-3.14625,0.0003182858946045794,0.001451881461056331
-3.145,-1.627970538396967e-05,0.0007816549356513777
-3.14375,0.0003182858946045794,-0.000223684852456052
-3.1425,0.0003182858946045794,-0.0008939113778610051
-3.14125,0.0003182858946045794,-0.001564137903265958
-3.14,0.0003182858946045794,-0.001564137903265958
-3.13875,0.0003182858946045794,-0.001564137903265958
-3.1375,0.0003182858946045794,-0.0008939113778610051
-3.13625,-1.627970538396967e-05,0.0001114284102464246
-3.135,-1.627970538396967e-05,0.0007816549356513777
-3.13375,-1.627970538396967e-05,0.001451881461056331
-3.1325,-1.627970538396967e-05,0.001786994723758807
-3.13125,-1.627970538396967e-05,0.002122107986461284
-3.13,-1.627970538396967e-05,0.001786994723758807
-3.12875,-1.627970538396967e-05,0.001116768198353854
-3.1275,-1.627970538396967e-05,0.0001114284102464246
-3.12625,-1.627970538396967e-05,-0.0005587981151585285
-3.125,-1.627970538396967e-05,-0.001229024640563482
-3.12375,-1.627970538396967e-05,-0.001564137903265958
-3.1225,0.0003182858946045794,-0.001564137903265958
-3.12125,0.0003182858946045794,-0.001229024640563482
-3.12,-1.627970538396967e-05,-0.000223684852456052
-3.11875,-1.627970538396967e-05,0.0004465416729489012
-3.1175,-1.627970538396967e-05,0.001451881461056331
-3.11625,0.0003182858946045794,0.001786994723758807
-3.115,-1.627970538396967e-05,0.002122107986461284
-3.11375,-1.627970538396967e-05,0.001786994723758807
-3.1125,-1.627970538396967e-05,0.001451881461056331
-3.11125,-1.627970538396967e-05,0.0004465416729489012
-3.11,-1.627970538396967e-05,-0.0005587981151585285
-3.10875,0.0003182858946045794,-0.001229024640563482
-3.1075,0.0003182858946045794,-0.001564137903265958
-3.10625,0.0003182858946045794,-0.001564137903265958
-3.105,0.0003182858946045794,-0.001229024640563482
-3.10375,-1.627970538396967e-05,-0.0005587981151585285
-3.1025,-1.627970538396967e-05,0.0001114284102464246
-3.10125,-1.627970538396967e-05,0.001116768198353854
-3.1,-1.627970538396967e-05,0.001786994723758807
-3.09875,-1.627970538396967e-05,0.002122107986461284
-3.0975,-1.627970538396967e-05,0.001786994723758807
-3.09625,-1.627970538396967e-05,0.001451881461056331
-3.095,-1.627970538396967e-05,0.0007816549356513777
-3.09375,-1.627970538396967e-05,-0.000223684852456052
-3.0925,-1.627970538396967e-05,-0.0008939113778610051
-3.09125,-1.627970538396967e-05,-0.001564137903265958
-3.09,0.0003182858946045794,-0.001564137903265958
-3.08875,0.0003182858946045794,-0.001564137903265958
-3.0875,-1.627970538396967e-05,-0.0008939113778610051
-3.08625,-1.627970538396967e-05,-0.000223684852456052
-3.085,-1.627970538396967e-05,0.0007816549356513777
-3.08375,-1.627970538396967e-05,0.001451881461056331
-3.0825,-1.627970538396967e-05,0.002122107986461284
-3.08125,-1.627970538396967e-05,0.002122107986461284
-3.08,-1.627970538396967e-05,0.001786994723758807
-3.07875,-1.627970538396967e-05,0.001116768198353854
-3.0775,-1.627970538396967e-05,0.0001114284102464246
-3.07625,-1.627970538396967e-05,-0.0005587981151585285
-3.075,-1.627970538396967e-05,-0.001229024640563482
-3.07375,-1.627970538396967e-05,-0.001564137903265958
-3.0725,-1.627970538396967e-05,-0.001564137903265958
-3.07125,-1.627970538396967e-05,-0.001229024640563482
-3.07,-1.627970538396967e-05,-0.000223684852456052
-3.06875,-1.627970538396967e-05,0.0004465416729489012
-3.0675,-1.627970538396967e-05,0.001116768198353854
-3.06625,-1.627970538396967e-05,0.001786994723758807
-3.065,-1.627970538396967e-05,0.002122107986461284
-3.06375,-1.627970538396967e-05,0.001786994723758807
-3.0625,-1.627970538396967e-05,0.001451881461056331
-3.06125,-1.627970538396967e-05,0.0004465416729489012
-3.06,-1.627970538396967e-05,-0.0005587981151585285
-3.05875,0.0003182858946045794,-0.001229024640563482
-3.0575,0.0003182858946045794,-0.001564137903265958
-3.05625,0.0003182858946045794,-0.001564137903265958
-3.055,0.0003182858946045794,-0.001229024640563482
-3.05375,0.0003182858946045794,-0.0005587981151585285
-3.0525,0.0003182858946045794,0.0001114284102464246
-3.05125,-1.627970538396967e-05,0.001116768198353854
-3.05,-1.627970538396967e-05,0.001786994723758807
-3.04875,-1.627970538396967e-05,0.002122107986461284
-3.0475,-1.627970538396967e-05,0.001786994723758807
-3.04625,-1.627970538396967e-05,0.001451881461056331
-3.045,-1.627970538396967e-05,0.0007816549356513777
-3.04375,-1.627970538396967e-05,-0.000223684852456052
-3.0425,0.0003182858946045794,-0.0008939113778610051
-3.04125,0.0003182858946045794,-0.001564137903265958
-3.04,0.0003182858946045794,-0.001564137903265958
-3.03875,0.0003182858946045794,-0.001564137903265958
-3.0375,0.0003182858946045794,-0.0008939113778610051
-3.03625,0.0003182858946045794,-0.000223684852456052
-3.035,0.0003182858946045794,0.0007816549356513777
-3.03375,-1.627970538396967e-05,0.001451881461056331
-3.0325,-1.627970538396967e-05,0.002122107986461284
-3.03125,-1.627970538396967e-05,0.002122107986461284
-3.03,-1.627970538396967e-05,0.001786994723758807
-3.02875,0.0003182858946045794,0.001116768198353854
-3.0275,-1.627970538396967e-05,0.0001114284102464246
-3.02625,-1.627970538396967e-05,-0.0005587981151585285
-3.025,0.0003182858946045794,-0.001229024640563482
-3.02375,0.0003182858946045794,-0.001564137903265958
-3.0225,0.0003182858946045794,-0.001564137903265958
-3.02125,0.0003182858946045794,-0.001229024640563482
-3.02,0.0003182858946045794,-0.000223684852456052
-3.01875,-1.627970538396967e-05,0.0004465416729489012
-3.0175,-1.627970538396967e-05,0.001116768198353854
-3.01625,-1.627970538396967e-05,0.001786994723758807
-3.015,-1.627970538396967e-05,0.002122107986461284
-3.01375,-1.627970538396967e-05,0.001786994723758807
-3.0125,-1.627970538396967e-05,0.001116768198353854
-3.01125,0.0003182858946045794,0.0004465416729489012
-3.01,0.0003182858946045794,-0.000223684852456052
-3.00875,0.0003182858946045794,-0.001229024640563482
-3.0075,0.0003182858946045794,-0.001564137903265958
-3.00625,0.0003182858946045794,-0.001564137903265958
-3.005,0.0003182858946045794,-0.001229024640563482
-3.00375,0.0003182858946045794,-0.0005587981151585285
-3.0025,0.0003182858946045794,0.0001114284102464246
-3.00125,-1.627970538396967e-05,0.001116768198353854
-3,-1.627970538396967e-05,0.001786994723758807
-2.99875,-1.627970538396967e-05,0.002122107986461284
-2.9975,-1.627970538396967e-05,0.001786994723758807
-2.99625,-1.627970538396967e-05,0.001451881461056331
-2.995,-1.627970538396967e-05,0.0007816549356513777
-2.99375,-1.627970538396967e-05,-0.000223684852456052
-2.9925,0.0003182858946045794,-0.0008939113778610051
-2.99125,0.0003182858946045794,-0.001564137903265958
-2.99,0.0003182858946045794,-0.001564137903265958
-2.98875,0.0003182858946045794,-0.001229024640563482
-2.9875,0.0003182858946045794,-0.0008939113778610051
-2.98625,0.0003182858946045794,0.0001114284102464246
-2.985,0.0003182858946045794,0.0007816549356513777
-2.98375,-1.627970538396967e-05,0.001451881461056331
-2.9825,-1.627970538396967e-05,0.001786994723758807
-2.98125,-1.627970538396967e-05,0.002122107986461284
-2.98,-1.627970538396967e-05,0.001786994723758807
-2.97875,-1.627970538396967e-05,0.001116768198353854
-2.9775,-1.627970538396967e-05,0.0001114284102464246
-2.97625,0.0003182858946045794,-0.0005587981151585285
-2.975,0.0003182858946045794,-0.001229024640563482
-2.97375,0.0003182858946045794,-0.001564137903265958
-2.9725,0.0003182858946045794,-0.001564137903265958
-2.97125,-1.627970538396967e-05,-0.001229024640563482
-2.97,-1.627970538396967e-05,-0.000223684852456052
-2.96875,-1.627970538396967e-05,0.0004465416729489012
-2.9675,-1.627970538396967e-05,0.001451881461056331
-2.96625,-1.627970538396967e-05,0.001786994723758807
-2.965,-1.627970538396967e-05,0.002122107986461284
-2.96375,-1.627970538396967e-05,0.001786994723758807
-2.9625,-1.627970538396967e-05,0.001116768198353854
-2.96125,-1.627970538396967e-05,0.0004465416729489012
-2.96,0.0003182858946045794,-0.0005587981151585285
-2.95875,0.0003182858946045794,-0.001229024640563482
-2.9575,0.0003182858946045794,-0.001564137903265958
-2.95625,0.0003182858946045794,-0.001564137903265958
-2.955,0.0003182858946045794,-0.001229024640563482
-2.95375,0.0003182858946045794,-0.0005587981151585285
-2.9525,-1.627970538396967e-05,0.0001114284102464246
-2.95125,-1.627970538396967e-05,0.0007816549356513777
-2.95,-1.627970538396967e-05,0.001786994723758807
-2.94875,-1.627970538396967e-05,0.002122107986461284
-2.9475,-1.627970538396967e-05,0.001786994723758807
-2.94625,-1.627970538396967e-05,0.001451881461056331
-2.945,-1.627970538396967e-05,0.0007816549356513777
-2.94375,-1.627970538396967e-05,-0.000223684852456052
-2.9425,-1.627970538396967e-05,-0.0008939113778610051
-2.94125,0.0003182858946045794,-0.001564137903265958
-2.94,0.0003182858946045794,-0.001564137903265958
-2.93875,0.0003182858946045794,-0.001564137903265958
-2.9375,0.0003182858946045794,-0.0008939113778610051
-2.93625,-1.627970538396967e-05,-0.000223684852456052
-2.935,-1.627970538396967e-05,0.0007816549356513777
-2.93375,-1.627970538396967e-05,0.001451881461056331
-2.9325,-1.627970538396967e-05,0.001786994723758807
-2.93125,-1.627970538396967e-05,0.002122107986461284
-2.93,-1.627970538396967e-05,0.001786994723758807
-2.92875,-1.627970538396967e-05,0.001116768198353854
-2.9275,-1.627970538396967e-05,0.0001114284102464246
-2.92625,-1.627970538396967e-05,-0.0005587981151585285
-2.925,0.0003182858946045794,-0.001229024640563482
-2.92375,-1.627970538396967e-05,-0.001564137903265958
-2.9225,-1.627970538396967e-05,-0.001564137903265958
-2.92125,-1.627970538396967e-05,-0.001229024640563482
-2.92,-1.627970538396967e-05,-0.000223684852456052
-2.91875,-1.627970538396967e-05,0.0004465416729489012
-2.9175,-1.627970538396967e-05,0.001116768198353854
-2.91625,-1.627970538396967e-05,0.001786994723758807
-2.915,-1.627970538396967e-05,0.002122107986461284
-2.91375,-1.627970538396967e-05,0.001786994723758807
-2.9125,-1.627970538396967e-05,0.001116768198353854
-2.91125,-1.627970538396967e-05,0.0004465416729489012
-2.91,0.0003182858946045794,-0.000223684852456052
-2.90875,0.0003182858946045794,-0.001229024640563482
-2.9075,0.0003182858946045794,-0.001564137903265958
-2.90625,0.0003182858946045794,-0.001564137903265958
-2.905,0.0003182858946045794,-0.001229024640563482
-2.90375,0.0003182858946045794,-0.0005587981151585285
-2.9025,-1.627970538396967e-05,0.0001114284102464246
-2.90125,-1.627970538396967e-05,0.001116768198353854
-2.9,-1.627970538396967e-05,0.001786994723758807
-2.89875,-1.627970538396967e-05,0.002122107986461284
-2.8975,-1.627970538396967e-05,0.002122107986461284
-2.89625,-1.627970538396967e-05,0.001451881461056331
-2.895,0.0003182858946045794,0.0007816549356513777
-2.89375,-1.627970538396967e-05,-0.000223684852456052
-2.8925,-1.627970538396967e-05,-0.0008939113778610051
-2.89125,-1.627970538396967e-05,-0.001564137903265958
-2.89,-1.627970538396967e-05,-0.001564137903265958
-2.88875,0.0003182858946045794,-0.001564137903265958
-2.8875,0.0003182858946045794,-0.0008939113778610051
-2.88625,0.0003182858946045794,-0.000223684852456052
-2.885,0.0003182858946045794,0.0007816549356513777
-2.88375,-1.627970538396967e-05,0.001451881461056331
-2.8825,-1.627970538396967e-05,0.002122107986461284
-2.88125,-1.627970538396967e-05,0.002122107986461284
-2.88,-1.627970538396967e-05,0.001786994723758807
-2.87875,-1.627970538396967e-05,0.001116768198353854
-2.8775,-1.627970538396967e-05,0.0001114284102464246
-2.87625,-1.627970538396967e-05,-0.0005587981151585285
-2.875,0.0003182858946045794,-0.001229024640563482
-2.87375,0.0003182858946045794,-0.001564137903265958
-2.8725,0.0003182858946045794,-0.001564137903265958
-2.87125,0.0003182858946045794,-0.001229024640563482
-2.87,0.0003182858946045794,-0.0005587981151585285
-2.86875,0.0003182858946045794,0.0004465416729489012
-2.8675,0.0003182858946045794,0.001116768198353854
-2.86625,-1.627970538396967e-05,0.001786994723758807
-2.865,-1.627970538396967e-05,0.001786994723758807
-2.86375,-1.627970538396967e-05,0.001786994723758807
-2.8625,-1.627970538396967e-05,0.001116768198353854
-2.86125,-1.627970538396967e-05,0.0004465416729489012
-2.86,0.0003182858946045794,-0.0005587981151585285
-2.85875,0.0003182858946045794,-0.001229024640563482
-2.8575,0.0003182858946045794,-0.001564137903265958
-2.85625,0.0003182858946045794,-0.001564137903265958
-2.855,0.0003182858946045794,-0.001564137903265958
-2.85375,-1.627970538396967e-05,-0.0008939113778610051
-2.8525,-1.627970538396967e-05,0.0001114284102464246
-2.85125,-1.627970538396967e-05,0.0007816549356513777
-2.85,-1.627970538396967e-05,0.001451881461056331
-2.84875,-1.627970538396967e-05,0.001786994723758807
-2.8475,-1.627970538396967e-05,0.001786994723758807
-2.84625,-1.627970538396967e-05,0.001451881461056331
-2.845,-1.627970538396967e-05,0.0007816549356513777
-2.84375,0.0003182858946045794,-0.000223684852456052
-2.8425,-1.627970538396967e-05,-0.0008939113778610051
-2.84125,0.0003182858946045794,-0.001564137903265958
-2.84,0.0003182858946045794,-0.001564137903265958
-2.83875,0.0003182858946045794,-0.001564137903265958
-2.8375,0.0003182858946045794,-0.0008939113778610051
-2.83625,0.0003182858946045794,-0.000223684852456052
-2.835,0.0003182858946045794,0.0007816549356513777
-2.83375,0.0003182858946045794,0.001451881461056331
-2.8325,-1.627970538396967e-05,0.001786994723758807
-2.83125,-1.627970538396967e-05,0.001786994723758807
-2.83,-1.627970538396967e-05,0.001451881461056331
-2.82875,-1.627970538396967e-05,0.0007816549356513777
-2.8275,0.0003182858946045794,0.0001114284102464246
-2.82625,0.0003182858946045794,-0.0005587981151585285
-2.825,0.0003182858946045794,-0.001229024640563482
-2.82375,0.0003182858946045794,-0.001564137903265958
-2.8225,0.0003182858946045794,-0.001564137903265958
-2.82125,0.0003182858946045794,-0.001229024640563482
-2.82,-1.627970538396967e-05,-0.0005587981151585285
-2.81875,-1.627970538396967e-05,0.0004465416729489012
-2.8175,-1.627970538396967e-05,0.001116768198353854
-2.81625,-1.627970538396967e-05,0.001786994723758807
-2.815,-1.627970538396967e-05,0.001786994723758807
-2.81375,-1.627970538396967e-05,0.001786994723758807
-2.8125,-1.627970538396967e-05,0.001116768198353854
-2.81125,-1.627970538396967e-05,0.0004465416729489012
-2.81,-1.627970538396967e-05,-0.0005587981151585285
-2.80875,0.0003182858946045794,-0.001229024640563482
-2.8075,0.0003182858946045794,-0.001564137903265958
-2.80625,0.0003182858946045794,-0.001564137903265958
-2.805,0.0003182858946045794,-0.001229024640563482
-2.80375,0.0003182858946045794,-0.0005587981151585285
-2.8025,-1.627970538396967e-05,0.0001114284102464246
-2.80125,-1.627970538396967e-05,0.0007816549356513777
-2.8,-1.627970538396967e-05,0.001451881461056331
-2.79875,-1.627970538396967e-05,0.001786994723758807
-2.7975,-1.627970538396967e-05,0.001786994723758807
-2.79625,-1.627970538396967e-05,0.001451881461056331
-2.795,-1.627970538396967e-05,0.0007816549356513777
-2.79375,0.0003182858946045794,-0.000223684852456052
-2.7925,-1.627970538396967e-05,-0.0008939113778610051
-2.79125,0.0003182858946045794,-0.001564137903265958
-2.79,0.0003182858946045794,-0.001564137903265958
-2.78875,0.0003182858946045794,-0.001564137903265958
-2.7875,0.0003182858946045794,-0.0008939113778610051
-2.78625,-1.627970538396967e-05,-0.000223684852456052
-2.785,-1.627970538396967e-05,0.0007816549356513777
-2.78375,-1.627970538396967e-05,0.001451881461056331
-2.7825,-1.627970538396967e-05,0.001786994723758807
-2.78125,-1.627970538396967e-05,0.002122107986461284
-2.78,-1.627970538396967e-05,0.001786994723758807
-2.77875,0.0003182858946045794,0.001116768198353854
-2.7775,0.0003182858946045794,0.0001114284102464246
-2.77625,0.0003182858946045794,-0.0005587981151585285
-2.775,0.0003182858946045794,-0.001229024640563482
-2.77375,0.0003182858946045794,-0.001564137903265958
-2.7725,0.0003182858946045794,-0.001564137903265958
-2.77125,0.0003182858946045794,-0.001229024640563482
-2.77,0.0003182858946045794,-0.0005587981151585285
-2.76875,-1.627970538396967e-05,0.0004465416729489012
-2.7675,0.0003182858946045794,0.001116768198353854
-2.76625,-1.627970538396967e-05,0.001786994723758807
-2.765,-1.627970538396967e-05,0.001786994723758807
-2.76375,-1.627970538396967e-05,0.001786994723758807
-2.7625,-1.627970538396967e-05,0.001116768198353854
-2.76125,0.0003182858946045794,0.0004465416729489012
-2.76,0.0003182858946045794,-0.0005587981151585285
-2.75875,0.0003182858946045794,-0.001229024640563482
-2.7575,0.0003182858946045794,-0.001564137903265958
-2.75625,0.0003182858946045794,-0.001564137903265958
-2.755,0.0003182858946045794,-0.001564137903265958
-2.75375,0.0003182858946045794,-0.0008939113778610051
-2.7525,-1.627970538396967e-05,0.0001114284102464246
-2.75125,-1.627970538396967e-05,0.0007816549356513777
-2.75,-1.627970538396967e-05,0.001451881461056331
-2.74875,-1.627970538396967e-05,0.001786994723758807
-2.7475,-1.627970538396967e-05,0.001786994723758807
-2.74625,-1.627970538396967e-05,0.001451881461056331
-2.745,-1.627970538396967e-05,0.0007816549356513777
-2.74375,0.0003182858946045794,-0.000223684852456052
-2.7425,0.0003182858946045794,-0.0008939113778610051
-2.74125,0.0003182858946045794,-0.001564137903265958
-2.74,0.0003182858946045794,-0.001564137903265958
-2.73875,0.0003182858946045794,-0.001564137903265958
-2.7375,0.0003182858946045794,-0.0008939113778610051
-2.73625,0.0003182858946045794,-0.000223684852456052
-2.735,0.0003182858946045794,0.0007816549356513777
-2.73375,-1.627970538396967e-05,0.001451881461056331
-2.7325,-1.627970538396967e-05,0.001786994723758807
-2.73125,-1.627970538396967e-05,0.001786994723758807
-2.73,-1.627970538396967e-05,0.001786994723758807
-2.72875,-1.627970538396967e-05,0.001116768198353854
-2.7275,0.0003182858946045794,0.0001114284102464246
-2.72625,0.0003182858946045794,-0.0005587981151585285
-2.725,0.0003182858946045794,-0.001229024640563482
-2.72375,0.0003182858946045794,-0.001564137903265958
-2.7225,0.0003182858946045794,-0.001564137903265958
-2.72125,0.0003182858946045794,-0.001229024640563482
-2.72,0.0003182858946045794,-0.0005587981151585285
-2.71875,0.0003182858946045794,0.0004465416729489012
-2.7175,-1.627970538396967e-05,0.001116768198353854
-2.71625,-1.627970538396967e-05,0.001786994723758807
-2.715,-1.627970538396967e-05,0.002122107986461284
-2.71375,0.0003182858946045794,0.001786994723758807
-2.7125,0.0003182858946045794,0.001451881461056331
-2.71125,0.0003182858946045794,0.0004465416729489012
-2.71,0.0003182858946045794,-0.000223684852456052
-2.70875,0.0003182858946045794,-0.001229024640563482
-2.7075,0.0003182858946045794,-0.001564137903265958
-2.70625,0.0003182858946045794,-0.001564137903265958
-2.705,0.0003182858946045794,-0.001564137903265958
-2.70375,0.0003182858946045794,-0.0008939113778610051
-2.7025,0.0003182858946045794,0.0001114284102464246
-2.70125,0.0003182858946045794,0.0007816549356513777
-2.7,0.0003182858946045794,0.001451881461056331
-2.69875,-1.627970538396967e-05,0.001786994723758807
-2.6975,-1.627970538396967e-05,0.001786994723758807
-2.69625,0.0003182858946045794,0.001451881461056331
-2.695,0.0003182858946045794,0.0007816549356513777
-2.69375,0.0003182858946045794,-0.000223684852456052
-2.6925,0.0003182858946045794,-0.0008939113778610051
-2.69125,0.0003182858946045794,-0.001564137903265958
-2.69,-1.627970538396967e-05,-0.001899251165968435
-2.68875,0.0003182858946045794,-0.001564137903265958
-2.6875,0.0003182858946045794,-0.0008939113778610051
-2.68625,0.0003182858946045794,-0.000223684852456052
-2.685,-1.627970538396967e-05,0.0004465416729489012
-2.68375,-1.627970538396967e-05,0.001451881461056331
-2.6825,-1.627970538396967e-05,0.001786994723758807
-2.68125,-1.627970538396967e-05,0.001786994723758807
-2.68,-1.627970538396967e-05,0.001451881461056331
-2.67875,-1.627970538396967e-05,0.001116768198353854
-2.6775,0.0003182858946045794,0.0001114284102464246
-2.67625,0.0003182858946045794,-0.0005587981151585285
-2.675,0.0003182858946045794,-0.001229024640563482
-2.67375,0.0003182858946045794,-0.001564137903265958
-2.6725,0.0003182858946045794,-0.001564137903265958
-2.67125,0.0003182858946045794,-0.001229024640563482
-2.67,0.0003182858946045794,-0.0005587981151585285
-2.66875,0.0003182858946045794,0.0004465416729489012
-2.6675,-1.627970538396967e-05,0.001116768198353854
-2.66625,-1.627970538396967e-05,0.001786994723758807
-2.665,-1.627970538396967e-05,0.002122107986461284
-2.66375,-1.627970538396967e-05,0.001786994723758807
-2.6625,-1.627970538396967e-05,0.001116768198353854
-2.66125,-1.627970538396967e-05,0.0004465416729489012
-2.66,-1.627970538396967e-05,-0.000223684852456052
-2.65875,-1.627970538396967e-05,-0.001229024640563482
-2.6575,0.0003182858946045794,-0.001564137903265958
-2.65625,-1.627970538396967e-05,-0.001564137903265958
-2.655,0.0003182858946045794,-0.001229024640563482
-2.65375,0.0003182858946045794,-0.0005587981151585285
-2.6525,-1.627970538396967e-05,0.0001114284102464246
-2.65125,0.0003182858946045794,0.0007816549356513777
-2.65,-1.627970538396967e-05,0.001451881461056331
-2.64875,-1.627970538396967e-05,0.001786994723758807
-2.6475,-1.627970538396967e-05,0.001786994723758807
-2.64625,-1.627970538396967e-05,0.001451881461056331
-2.645,-1.627970538396967e-05,0.0007816549356513777
-2.64375,0.0003182858946045794,-0.000223684852456052
-2.6425,0.0003182858946045794,-0.0008939113778610051
-2.64125,0.0003182858946045794,-0.001564137903265958
-2.64,0.0003182858946045794,-0.001564137903265958
-2.63875,0.0003182858946045794,-0.001564137903265958
-2.6375,0.0003182858946045794,-0.0008939113778610051
-2.63625,0.0003182858946045794,-0.000223684852456052
-2.635,-1.627970538396967e-05,0.0004465416729489012
-2.63375,-1.627970538396967e-05,0.001451881461056331
-2.6325,-1.627970538396967e-05,0.001786994723758807
-2.63125,-1.627970538396967e-05,0.001786994723758807
-2.63,-1.627970538396967e-05,0.001786994723758807
-2.62875,-1.627970538396967e-05,0.001116768198353854
-2.6275,0.0003182858946045794,0.0001114284102464246
-2.62625,0.0003182858946045794,-0.0005587981151585285
-2.625,0.0003182858946045794,-0.001229024640563482
-2.62375,0.0003182858946045794,-0.001564137903265958
-2.6225,0.0003182858946045794,-0.001564137903265958
-2.62125,0.0003182858946045794,-0.001229024640563482
-2.62,0.0003182858946045794,-0.000223684852456052
-2.61875,0.0003182858946045794,0.0004465416729489012
-2.6175,-1.627970538396967e-05,0.001116768198353854
-2.61625,-1.627970538396967e-05,0.001786994723758807
-2.615,-1.627970538396967e-05,0.002122107986461284
-2.61375,-1.627970538396967e-05,0.001786994723758807
-2.6125,-1.627970538396967e-05,0.001451881461056331
-2.61125,-1.627970538396967e-05,0.0004465416729489012
-2.61,-1.627970538396967e-05,-0.000223684852456052
-2.60875,0.0003182858946045794,-0.0008939113778610051
-2.6075,0.0003182858946045794,-0.001564137903265958
-2.60625,0.0003182858946045794,-0.001564137903265958
-2.605,0.0003182858946045794,-0.001229024640563482
-2.60375,0.0003182858946045794,-0.0005587981151585285
-2.6025,0.0003182858946045794,0.0001114284102464246
-2.60125,-1.627970538396967e-05,0.001116768198353854
-2.6,-1.627970538396967e-05,0.001451881461056331
-2.59875,0.0003182858946045794,0.002122107986461284
-2.5975,0.0003182858946045794,0.001786994723758807
-2.59625,-1.627970538396967e-05,0.001451881461056331
-2.595,-1.627970538396967e-05,0.0007816549356513777
-2.59375,-1.627970538396967e-05,0.0001114284102464246
-2.5925,0.0003182858946045794,-0.0008939113778610051
-2.59125,0.0003182858946045794,-0.001229024640563482
-2.59,0.0003182858946045794,-0.001564137903265958
-2.58875,0.0003182858946045794,-0.001564137903265958
-2.5875,0.0003182858946045794,-0.0008939113778610051
-2.58625,0.0003182858946045794,-0.000223684852456052
-2.585,0.0003182858946045794,0.0007816549356513777
-2.58375,-1.627970538396967e-05,0.001451881461056331
-2.5825,-1.627970538396967e-05,0.002122107986461284
-2.58125,-1.627970538396967e-05,0.002122107986461284
-2.58,0.0003182858946045794,0.001786994723758807
-2.57875,0.0003182858946045794,0.001116768198353854
-2.5775,0.0003182858946045794,0.0001114284102464246
-2.57625,0.0003182858946045794,-0.0005587981151585285
-2.575,0.0003182858946045794,-0.001229024640563482
-2.57375,0.0003182858946045794,-0.001564137903265958
-2.5725,0.0003182858946045794,-0.001564137903265958
-2.57125,0.0003182858946045794,-0.001229024640563482
-2.57,0.0003182858946045794,-0.0005587981151585285
-2.56875,0.0003182858946045794,0.0004465416729489012
-2.5675,0.0003182858946045794,0.001116768198353854
-2.56625,-1.627970538396967e-05,0.001786994723758807
-2.565,-1.627970538396967e-05,0.002122107986461284
-2.56375,-1.627970538396967e-05,0.001786994723758807
-2.5625,-1.627970538396967e-05,0.001451881461056331
-2.56125,-1.627970538396967e-05,0.0004465416729489012
-2.56,0.0003182858946045794,-0.000223684852456052
-2.55875,-1.627970538396967e-05,-0.0008939113778610051
-2.5575,0.0003182858946045794,-0.001564137903265958
-2.55625,0.0003182858946045794,-0.001564137903265958
-2.555,0.0003182858946045794,-0.001229024640563482
-2.55375,0.0003182858946045794,-0.0005587981151585285
-2.5525,0.0003182858946045794,0.0001114284102464246
-2.55125,-1.627970538396967e-05,0.0007816549356513777
-2.55,0.0003182858946045794,0.001451881461056331
-2.54875,-1.627970538396967e-05,0.002122107986461284
-2.5475,-1.627970538396967e-05,0.001786994723758807
-2.54625,-1.627970538396967e-05,0.001451881461056331
-2.545,0.0003182858946045794,0.0007816549356513777
-2.54375,0.0003182858946045794,0.0001114284102464246
-2.5425,0.0003182858946045794,-0.0008939113778610051
-2.54125,0.0003182858946045794,-0.001229024640563482
-2.54,0.0003182858946045794,-0.001564137903265958
-2.53875,0.0003182858946045794,-0.001564137903265958
-2.5375,0.0003182858946045794,-0.0008939113778610051
-2.53625,0.0003182858946045794,-0.000223684852456052
-2.535,0.0003182858946045794,0.0007816549356513777
-2.53375,-1.627970538396967e-05,0.001451881461056331
-2.5325,-1.627970538396967e-05,0.001786994723758807
-2.53125,-1.627970538396967e-05,0.002122107986461284
-2.53,-1.627970538396967e-05,0.001786994723758807
-2.52875,-1.627970538396967e-05,0.001116768198353854
-2.5275,-1.627970538396967e-05,0.0001114284102464246
-2.52625,-1.627970538396967e-05,-0.0005587981151585285
-2.525,-1.627970538396967e-05,-0.001229024640563482
-2.52375,-1.627970538396967e-05,-0.001564137903265958
-2.5225,0.0003182858946045794,-0.001564137903265958
-2.52125,0.0003182858946045794,-0.001229024640563482
-2.52,0.0003182858946045794,-0.0005587981151585285
-2.51875,-1.627970538396967e-05,0.0004465416729489012
-2.5175,-1.627970538396967e-05,0.001116768198353854
-2.51625,-1.627970538396967e-05,0.001786994723758807
-2.515,-1.627970538396967e-05,0.002122107986461284
-2.51375,-1.627970538396967e-05,0.001786994723758807
-2.5125,-1.627970538396967e-05,0.001451881461056331
-2.51125,-1.627970538396967e-05,0.0004465416729489012
-2.51,0.0003182858946045794,-0.000223684852456052
-2.50875,0.0003182858946045794,-0.0008939113778610051
-2.5075,0.0003182858946045794,-0.001564137903265958
-2.50625,0.0003182858946045794,-0.001564137903265958
-2.505,0.0003182858946045794,-0.001229024640563482
-2.50375,-1.627970538396967e-05,-0.0005587981151585285
-2.5025,-1.627970538396967e-05,0.0001114284102464246
-2.50125,-1.627970538396967e-05,0.0007816549356513777
-2.5,-1.627970538396967e-05,0.001451881461056331
-2.49875,-1.627970538396967e-05,0.001786994723758807
-2.4975,-1.627970538396967e-05,0.001786994723758807
-2.49625,-1.627970538396967e-05,0.001451881461056331
-2.495,-1.627970538396967e-05,0.0007816549356513777
-2.49375,0.0003182858946045794,0.0001114284102464246
-2.4925,-1.627970538396967e-05,-0.0008939113778610051
-2.49125,-1.627970538396967e-05,-0.001564137903265958
-2.49,-1.627970538396967e-05,-0.001564137903265958
-2.48875,0.0003182858946045794,-0.001564137903265958
-2.4875,-1.627970538396967e-05,-0.0008939113778610051
-2.48625,-1.627970538396967e-05,-0.000223684852456052
-2.485,-1.627970538396967e-05,0.0007816549356513777
-2.48375,-1.627970538396967e-05,0.001451881461056331
-2.4825,-1.627970538396967e-05,0.001786994723758807
-2.48125,-1.627970538396967e-05,0.002122107986461284
-2.48,-1.627970538396967e-05,0.001786994723758807
-2.47875,-1.627970538396967e-05,0.001116768198353854
-2.4775,-1.627970538396967e-05,0.0001114284102464246
-2.47625,-1.627970538396967e-05,-0.0005587981151585285
-2.475,0.0003182858946045794,-0.001229024640563482
-2.47375,-1.627970538396967e-05,-0.001564137903265958
-2.4725,0.0003182858946045794,-0.001564137903265958
-2.47125,-1.627970538396967e-05,-0.001229024640563482
-2.47,0.0003182858946045794,-0.0005587981151585285
-2.46875,-1.627970538396967e-05,0.0004465416729489012
-2.4675,-1.627970538396967e-05,0.001116768198353854
-2.46625,-1.627970538396967e-05,0.001786994723758807
-2.465,-1.627970538396967e-05,0.002122107986461284
-2.46375,-1.627970538396967e-05,0.001786994723758807
-2.4625,-1.627970538396967e-05,0.001451881461056331
-2.46125,-1.627970538396967e-05,0.0004465416729489012
-2.46,-1.627970538396967e-05,-0.000223684852456052
-2.45875,0.0003182858946045794,-0.0008939113778610051
-2.4575,0.0003182858946045794,-0.001564137903265958
-2.45625,0.0003182858946045794,-0.001564137903265958
-2.455,0.0003182858946045794,-0.001229024640563482
-2.45375,0.0003182858946045794,-0.0005587981151585285
-2.4525,-1.627970538396967e-05,0.0001114284102464246
-2.45125,-1.627970538396967e-05,0.0007816549356513777
-2.45,-1.627970538396967e-05,0.001451881461056331
-2.44875,-1.627970538396967e-05,0.002122107986461284
-2.4475,-1.627970538396967e-05,0.001786994723758807
-2.44625,-1.627970538396967e-05,0.001451881461056331
-2.445,-1.627970538396967e-05,0.0007816549356513777
-2.44375,-1.627970538396967e-05,0.0001114284102464246
-2.4425,-1.627970538396967e-05,-0.0008939113778610051
-2.44125,-1.627970538396967e-05,-0.001229024640563482
-2.44,0.0003182858946045794,-0.001564137903265958
-2.43875,0.0003182858946045794,-0.001229024640563482
-2.4375,0.0003182858946045794,-0.0008939113778610051
-2.43625,0.0003182858946045794,-0.000223684852456052
-2.435,-1.627970538396967e-05,0.0004465416729489012
-2.43375,-1.627970538396967e-05,0.001451881461056331
-2.4325,-1.627970538396967e-05,0.001786994723758807
-2.43125,-1.627970538396967e-05,0.001786994723758807
-2.43,-1.627970538396967e-05,0.001786994723758807
-2.42875,-1.627970538396967e-05,0.001116768198353854
-2.4275,-1.627970538396967e-05,0.0001114284102464246
-2.42625,0.0003182858946045794,-0.0005587981151585285
-2.425,0.0003182858946045794,-0.001229024640563482
-2.42375,0.0003182858946045794,-0.001564137903265958
-2.4225,0.0003182858946045794,-0.001564137903265958
-2.42125,0.0003182858946045794,-0.001229024640563482
-2.42,-1.627970538396967e-05,-0.0005587981151585285
-2.41875,-1.627970538396967e-05,0.0004465416729489012
-2.4175,-1.627970538396967e-05,0.001116768198353854
-2.41625,-1.627970538396967e-05,0.001786994723758807
-2.415,-1.627970538396967e-05,0.002122107986461284
-2.41375,-1.627970538396967e-05,0.001786994723758807
-2.4125,-1.627970538396967e-05,0.001451881461056331
-2.41125,0.0003182858946045794,0.0004465416729489012
-2.41,0.0003182858946045794,-0.000223684852456052
-2.40875,0.0003182858946045794,-0.0008939113778610051
-2.4075,0.0003182858946045794,-0.001564137903265958
-2.40625,0.0003182858946045794,-0.001564137903265958
-2.405,0.0003182858946045794,-0.001229024640563482
-2.40375,0.0003182858946045794,-0.0008939113778610051
-2.4025,0.0003182858946045794,0.0001114284102464246
-2.40125,-1.627970538396967e-05,0.0007816549356513777
-2.4,-1.627970538396967e-05,0.001451881461056331
-2.39875,-1.627970538396967e-05,0.002122107986461284
-2.3975,-1.627970538396967e-05,0.001786994723758807
-2.39625,-1.627970538396967e-05,0.001451881461056331
-2.395,-1.627970538396967e-05,0.0007816549356513777
-2.39375,-1.627970538396967e-05,-0.000223684852456052
-2.3925,0.0003182858946045794,-0.0008939113778610051
-2.39125,0.0003182858946045794,-0.001229024640563482
-2.39,0.0003182858946045794,-0.001564137903265958
-2.38875,0.0003182858946045794,-0.001564137903265958
-2.3875,0.0003182858946045794,-0.0008939113778610051
-2.38625,0.0003182858946045794,-0.000223684852456052
-2.385,-1.627970538396967e-05,0.0004465416729489012
-2.38375,-1.627970538396967e-05,0.001451881461056331
-2.3825,-1.627970538396967e-05,0.001786994723758807
-2.38125,-1.627970538396967e-05,0.002122107986461284
-2.38,-1.627970538396967e-05,0.001786994723758807
-2.37875,-1.627970538396967e-05,0.001116768198353854
-2.3775,-1.627970538396967e-05,0.0001114284102464246
-2.37625,0.0003182858946045794,-0.0005587981151585285
-2.375,0.0003182858946045794,-0.001229024640563482
-2.37375,0.0003182858946045794,-0.001564137903265958
-2.3725,0.0003182858946045794,-0.001564137903265958
-2.37125,0.0003182858946045794,-0.001229024640563482
-2.37,0.0003182858946045794,-0.0005587981151585285
-2.36875,0.0003182858946045794,0.0004465416729489012
-2.3675,-1.627970538396967e-05,0.001116768198353854
-2.36625,0.0003182858946045794,0.001786994723758807
-2.365,-1.627970538396967e-05,0.001786994723758807
-2.36375,-1.627970538396967e-05,0.001786994723758807
-2.3625,-1.627970538396967e-05,0.001451881461056331
-2.36125,0.0003182858946045794,0.0004465416729489012
-2.36,0.0003182858946045794,-0.000223684852456052
-2.35875,0.0003182858946045794,-0.0008939113778610051
-2.3575,0.0003182858946045794,-0.001564137903265958
-2.35625,0.0003182858946045794,-0.001564137903265958
-2.355,0.0003182858946045794,-0.001229024640563482
-2.35375,0.0003182858946045794,-0.0005587981151585285
-2.3525,0.0003182858946045794,0.0001114284102464246
-2.35125,-1.627970538396967e-05,0.0007816549356513777
-2.35,-1.627970538396967e-05,0.001451881461056331
-2.34875,0.0003182858946045794,0.002122107986461284
-2.3475,-1.627970538396967e-05,0.001786994723758807
-2.34625,-1.627970538396967e-05,0.001451881461056331
-2.345,0.0003182858946045794,0.0007816549356513777
-2.34375,0.0003182858946045794,0.0001114284102464246
-2.3425,0.0003182858946045794,-0.0008939113778610051
-2.34125,0.0003182858946045794,-0.001229024640563482
-2.34,0.0003182858946045794,-0.001564137903265958
-2.33875,0.0003182858946045794,-0.001564137903265958
-2.3375,0.0003182858946045794,-0.0008939113778610051
-2.33625,0.0003182858946045794,-0.000223684852456052
-2.335,0.0003182858946045794,0.0007816549356513777
-2.33375,0.0003182858946045794,0.001451881461056331
-2.3325,-1.627970538396967e-05,0.001786994723758807
-2.33125,-1.627970538396967e-05,0.001786994723758807
