#Digilent WaveForms Oscilloscope Acquisition
#Device Name: Discovery
#Serial Number: SN:210244566833
#Date Time: 2019-07-15 10:40:34.737
#Sample rate: 800Hz
#Samples: 8192
#Trigger: Source: Channel 1 Type: Edge Condition: Rising Level: 0 V Hyst.: Auto HoldOff: 0 s
#Channel 1: Range: 500 mV/div Offset: 0 V Attenuation: 1 X
#Channel 2: Range: 200 mV/div Offset: 0 V Attenuation: 1 X
#Power Supplies: ON
#Positive Supply: ON
#Negative Supply: ON

Time (s),Channel 1 (V),Channel 2 (V)
-5.12,0.001656548294558776,-0.03641591722432352
-5.11875,0.0006528514945935849,-0.008601516420030618
-5.1175,-0.002023673305315264,0.06344783506101449
-5.11625,-0.00336193570526946,0.09695916133126216
-5.115,-0.003027370105280911,0.08958666955180768
-5.11375,-0.002358238905303509,0.06679896768803088
-5.1125,-0.001689107705326715,0.04836773823940305
-5.11125,-0.001354542105338166,0.03596854751941142
-5.11,0.0006528514945922156,-0.02100070713998369
-5.10875,0.003329376294501673,-0.09170960557023505
-5.1075,0.00366394189449007,-0.09807675756157921
-5.10625,0.002994810694512972,-0.07327837612159595
-5.105,0.002325679494536178,-0.0518311273086472
-5.10375,0.001656548294558776,-0.0380914835378359
-5.1025,0.001321982694570227,-0.02435183976703437
-5.10125,-0.001019976505349617,0.04267081277346095
-5.1,-0.00336193570526946,0.09226757565342916
-5.09875,-0.00336193570526946,0.09595382154315472
-5.0975,-0.002692804505292362,0.0735012329420888
-5.09625,-0.002023673305315569,0.05339443717994935
-5.095,-0.001689107705326715,0.03965479340913866
-5.09375,-0.0003508453053725187,0.002792334511866237
-5.0925,0.002660245094524423,-0.07763484853672814
-5.09125,0.003663941894489918,-0.1047790228156185
-5.09,0.003329376294501521,-0.08232643421456282
-5.08875,0.002325679494535874,-0.05886850582538945
-5.0875,0.001991113894547477,-0.04345329574108254
-5.08625,0.001656548294558776,-0.03373501112270371
-5.085,-0.0003508453053725187,0.0161968650199653
-5.08375,-0.002692804505292362,0.08053861145884081
-5.0825,-0.003361935705269308,0.09863472764476662
-5.08125,-0.003027370105280911,0.08120883798424576
-5.08,-0.002358238905303813,0.05942647590858478
-5.07875,-0.001689107705327019,0.04334103929887322
-5.0775,-0.0010199765053484,0.02423958332479106
-5.07625,0.001656548294558776,-0.04982044773242258
-5.075,0.00366394189449007,-0.1027683432394139
-5.07375,0.003329376294501673,-0.09036915251942788
-5.0725,0.002660245094524423,-0.06557077107943898
-5.07125,0.001991113894547325,-0.0468044283681003
-5.07,0.001656548294558776,-0.03541057743621609
-5.06875,0.0006528514945919113,-0.007261063369175448
-5.0675,-0.002023673305315264,0.06445317484912193
-5.06625,-0.00336193570526946,0.09729427459396463
-5.065,-0.00336193570526946,0.08891644302640653
-5.06375,-0.002358238905303813,0.06612874116263431
-5.0625,-0.001689107705326715,0.0476975117139981
-5.06125,-0.001354542105338166,0.03462809446860151
-5.06,0.0006528514945943456,-0.02502206629247102
-5.05875,0.003329376294501521,-0.09472562493455444
-5.0575,0.00366394189449007,-0.09874698408698417
-5.05625,0.00266024509452488,-0.0742837159097145
-5.055,0.002325679494535874,-0.05283646709674487
-5.05375,0.001656548294558776,-0.03976704985134829
-5.0525,0.001321982694570227,-0.02502206629243932
-5.05125,-0.001354542105338927,0.04233569951078103
-5.05,-0.003027370105280911,0.09193246239072501
-5.04875,-0.00336193570526946,0.09461336849234482
-5.0475,-0.002692804505292667,0.07283100641669375
-5.04625,-0.002023673305315112,0.05238909739182668
-5.045,-0.001689107705326715,0.03898456688373371
-5.04375,-0.0003508453053725187,0.003127447774568714
-5.0425,0.002660245094523054,-0.07562416896047747
-5.04125,0.00366394189449007,-0.1041087962902238
-5.04,0.002994810694512972,-0.08232643421456282
-5.03875,0.002325679494535874,-0.05886850582538945
-5.0375,0.001656548294558776,-0.04278306921566646
-5.03625,0.001656548294558776,-0.03373501112270371
-5.035,-0.0003508453053725187,0.01787243133347768
-5.03375,-0.002692804505291297,0.08087372472151463
-5.0325,-0.003696501305258009,0.09863472764477454
-5.03125,-0.003027370105280911,0.08087372472154328
-5.03,-0.002358238905303813,0.05875624938317982
-5.02875,-0.001689107705326411,0.04300592603615443
-5.0275,-0.001019976505349617,0.02323424353671731
-5.02625,0.001656548294558776,-0.05149601404593497
-5.025,0.003663941894489157,-0.1034385697647952
-5.02375,0.003329376294501521,-0.09070426578212473
-5.0225,0.002660245094524423,-0.06624099760484393
-5.02125,0.001991113894547325,-0.04814488141891021
-5.02,0.001656548294558319,-0.03675103048701259
-5.01875,0.0006528514945931285,-0.00726106336920806
-5.0175,-0.002023673305315264,0.06545851463722936
-5.01625,-0.003361935705268852,0.09796450111935481
-5.015,-0.003361935705269004,0.08858132976368972
-5.01375,-0.002358238905303813,0.06545851463722936
-5.0125,-0.002023673305315264,0.04702728518859314
-5.01125,-0.00135454210533847,0.03429298120590482
-5.01,0.0006528514945931285,-0.02468695302973684
-5.00875,0.003329376294501521,-0.09439051167185197
-5.0075,0.003329376294501521,-0.09874698408698417
-5.00625,0.002994810694512668,-0.07428371590969363
-5.005,0.002325679494535874,-0.05283646709674487
-5.00375,0.001656548294558776,-0.03943193658864581
-5.0025,0.001321982694570379,-0.02502206629244587
-5.00125,-0.001019976505349617,0.04367615256156838
-5,-0.00336193570526946,0.09327291544153492
-4.99875,-0.00336193570526946,0.0949484817550473
-4.9975,-0.002692804505292058,0.07283100641667455
-4.99625,-0.002023673305315264,0.05238909739183277
-4.995,-0.001689107705326715,0.03898456688373371
-4.99375,-0.0003508453053731274,0.0007816549356687505
-4.9925,0.002660245094524423,-0.07897530158753804
-4.99125,0.00366394189449007,-0.1054492493410337
-4.99,0.003329376294501521,-0.08299666073996777
-4.98875,0.002660245094524118,-0.05987384561348972
-4.9875,0.001991113894547325,-0.04412352226648048
-4.98625,0.001656548294558776,-0.03440523764810866
-4.985,-1.627970538320899e-05,0.01820754459615623
-4.98375,-0.002692804505292667,0.08187906450965803
-4.9825,-0.00336193570526946,0.09796450111936959
-4.98125,-0.003027370105280911,0.08053861145884081
-4.98,-0.002023673305315721,0.05875624938318973
-4.97875,-0.001689107705326715,0.04300592603616343
-4.9775,-0.001019976505349617,0.02222890374860988
-4.97625,0.001991113894547325,-0.05384180688485231
-4.975,0.003663941894489918,-0.105114136078325
-4.97375,0.003329376294501521,-0.09137449230752968
-4.9725,0.002660245094524423,-0.06657611086754642
-4.97125,0.001991113894547629,-0.04747465489351393
-4.97,0.001656548294558776,-0.03641591722432352
-4.96875,0.0006528514945931285,-0.006590836843803107
-4.9675,-0.002023673305315264,0.06612874116263431
-4.96625,-0.003361935705269308,0.09729427459396052
-4.965,-0.003027370105280911,0.08824621650099776
-4.96375,-0.002358238905303813,0.06545851463722936
-4.9625,-0.001689107705327019,0.04702728518860153
-4.96125,-0.001354542105338166,0.03429298120589903
-4.96,0.0009874170945816775,-0.02736785913135666
-4.95875,0.003329376294501521,-0.09673630451076931
-4.9575,0.003663941894489766,-0.09874698408697304
-4.95625,0.002994810694512972,-0.07428371590970338
-4.955,0.002325679494535874,-0.05317158035944735
-4.95375,0.001991113894547477,-0.03976704985135439
-4.9525,0.001321982694569009,-0.02435183976700313
-4.95125,-0.001354542105338166,0.04434637908697334
-4.95,-0.003027370105280911,0.09394314196693987
-4.94875,-0.003361935705269308,0.09461336849234452
-4.9475,-0.002692804505292362,0.07283100641668384
-4.94625,-0.002023673305315264,0.05305932391723772
-4.945,-0.001354542105338166,0.03931968014643619
-4.94375,-0.0003508453053711494,0.002122107986425472
-4.9425,0.002660245094524423,-0.07662950874862071
-4.94125,0.00366394189449007,-0.1037736830275213
-4.94,0.002994810694513276,-0.08165620768916793
-4.93875,0.002325679494535874,-0.05786316603728203
-4.9375,0.001991113894547325,-0.04211284269026563
-4.93625,0.001656548294558776,-0.03272967133459628
-4.935,-0.0003508453053735838,0.02055333743512584
-4.93375,-0.002692804505292362,0.08288440429775815
-4.9325,-0.003696501305258009,0.09964006743288197
-4.93125,-0.003027370105281216,0.08221417777236111
-4.93,-0.002023673305315264,0.06009670243398973
-4.92875,-0.001689107705326715,0.04468149234967581
-4.9275,-0.001019976505349617,0.02256401701131236
-4.92625,0.001991113894548085,-0.05518225993568476
-4.925,0.00366394189449007,-0.1047790228156287
-4.92375,0.003329376294501521,-0.09003403925671978
-4.9225,0.002660245094524727,-0.06590588434215244
-4.92125,0.001991113894547173,-0.04747465489350022
-4.92,0.001656548294558776,-0.03641591722432352
-4.91875,0.0006528514945931285,-0.005250383792993201
-4.9175,-0.002023673305314047,0.06713408095070882
-4.91625,-0.00336193570526946,0.09796450111936959
-4.915,-0.003027370105280911,0.08791110323829529
-4.91375,-0.002358238905303813,0.06545851463722936
-4.9125,-0.001689107705326563,0.04702728518858705
-4.91125,-0.001354542105338166,0.03362275468049408
-4.91,0.0009874170945816775,-0.03004876523297647
-4.90875,0.003663941894488853,-0.09874698408695293
-4.9075,0.00366394189449007,-0.09908209734968665
-4.90625,0.002994810694512972,-0.07361348938429842
-4.905,0.002325679494535874,-0.05283646709674487
-4.90375,0.00199111389454702,-0.03976704985134082
-4.9025,0.001321982694570227,-0.02334649997892694
-4.90125,-0.001354542105338166,0.04602194540048572
-4.9,-0.003027370105280151,0.09327291544151342
-4.89875,-0.00336193570526946,0.09528359501774977
-4.8975,-0.002692804505292362,0.07283100641668384
-4.89625,-0.002023673305315264,0.05205398412913029
-4.895,-0.001689107705326106,0.03898456688371633
-4.89375,-0.0003508453053725187,0.0007816549356513777
-4.8925,0.002660245094524423,-0.07897530158753804
-4.89125,0.003663941894489614,-0.1044439095529147
-4.89,0.002994810694512668,-0.08232643421455245
-4.88875,0.002325679494535874,-0.0595387323507944
-4.8875,0.001991113894547325,-0.04311818247837305
-4.88625,0.001656548294558928,-0.03373501112270798
-4.885,-0.0003508453053725187,0.01988311090969254
-4.88375,-0.002692804505292362,0.08221417777235318
-4.8825,-0.003696501305258009,0.09796450111936959
-4.88125,-0.003027370105280455,0.07919815840802098
-4.88,-0.002023673305315264,0.05741579633236992
-4.87875,-0.001689107705326715,0.04133035972265105
-4.8775,-0.001019976505349921,0.018542657858893
-4.87625,0.001991113894547325,-0.05920361908809193
-4.875,0.00366394189449007,-0.1067897023918436
-4.87375,0.003329376294501521,-0.09070426578212473
-4.8725,0.002660245094524118,-0.06590588434213293
-4.87125,0.001991113894547325,-0.04713954163080277
-4.87,0.001656548294558776,-0.03608080396162105
-4.86875,0.0006528514945935849,-0.004245044004900243
-4.8675,-0.002023673305315264,0.06746919421344422
-4.86625,-0.00336193570526946,0.09796450111936959
-4.865,-0.003027370105280911,0.08757598997559281
-4.86375,-0.002358238905303509,0.06545851463722098
-4.8625,-0.001689107705326715,0.04702728518859314
-4.86125,-0.001354542105338166,0.03429298120589903
-4.86,0.0009874170945806124,-0.02669763260592397
-4.85875,0.003329376294501673,-0.09539585145996109
-4.8575,0.00366394189449007,-0.09908209734968665
-4.85625,0.002994810694512972,-0.07461882917240585
-4.855,0.002325679494536178,-0.05350669362215943
-4.85375,0.001991113894547325,-0.04043727637675324
-4.8525,0.001321982694570227,-0.02401672650433189
-4.85125,-0.001354542105338166,0.04535171887508076
-4.85,-0.003027370105281064,0.09260268891613042
-4.84875,-0.00336193570526946,0.09360802870423739
-4.8475,-0.002692804505292362,0.07115544010317146
-4.84625,-0.002023673305315569,0.05104864434103201
-4.845,-0.001354542105338166,0.03831434035832876
-4.84375,-1.627970538396967e-05,-0.0005587981151585285
-4.8425,0.002660245094524423,-0.07897530158753804
-4.84125,0.003998507494478163,-0.1044439095529159
-4.84,0.002994810694512972,-0.08165620768915786
-4.83875,0.002325679494535874,-0.05920361908809193
-4.8375,0.001991113894547477,-0.04345329574108269
-4.83625,0.001656548294558776,-0.03373501112270371
-4.835,-0.0003508453053725187,0.02122356396050245
-4.83375,-0.002692804505292362,0.0835546308231631
-4.8325,-0.003361935705269156,0.09829961438206368
-4.83125,-0.002692804505292362,0.07986838493343586
-4.83,-0.002023673305315264,0.05875624938317982
-4.82875,-0.001689107705326867,0.04300592603617059
-4.8275,-0.001019976505348248,0.02122356396046786
-4.82625,0.001991113894547325,-0.05484714667295974
-4.825,0.00366394189449007,-0.1041087962902238
-4.82375,0.00366394189449007,-0.09036915251942849
-4.8225,0.002660245094524423,-0.06590588434214147
-4.82125,0.001991113894547325,-0.04747465489350525
-4.82,0.001656548294558776,-0.03641591722432352
-4.81875,0.0006528514945919113,-0.003909930742150378
-4.8175,-0.002023673305315264,0.06847453400155165
-4.81625,-0.00336193570526946,0.09863472764477454
-4.815,-0.003027370105281064,0.08757598997559783
-4.81375,-0.002358238905303813,0.06545851463722936
-4.8125,-0.001689107705326715,0.04736239845129563
-4.81125,-0.001354542105338166,0.03395786794319656
-4.81,0.0009874170945828947,-0.03004876523300725
-4.80875,0.00366394189449007,-0.09774164429887673
-4.8075,0.00366394189449007,-0.09807675756157921
-4.80625,0.002994810694513276,-0.07327837612160723
-4.805,0.002325679494535874,-0.05183112730863745
-4.80375,0.001656548294558776,-0.03876171006324086
-4.8025,0.001321982694570227,-0.02200604692811703
-4.80125,-0.001354542105338927,0.04803262497672161
-4.8,-0.003027370105280911,0.09427825522964234
-4.79875,-0.00336193570526946,0.0949484817550473
-4.7975,-0.002692804505292667,0.07283100641669391
-4.79625,-0.00202367330531496,0.05238909739182668
-4.795,-0.001354542105338166,0.03898456688373371
-4.79375,-1.627970538396967e-05,-0.001899251165968435
-4.7925,0.002994810694511603,-0.08132109442641927
-4.79125,0.00399850749447862,-0.1044439095529263
-4.79,0.003329376294501521,-0.08165620768915786
-4.78875,0.002660245094524423,-0.0581982792999845
-4.7875,0.001991113894547173,-0.04345329574107111
-4.78625,0.001656548294558776,-0.03373501112270371
-4.785,-0.0003508453053725187,0.02289913027401483
-4.78375,-0.002692804505291297,0.08355463082313552
-4.7825,-0.00336193570526946,0.09896984090747701
-4.78125,-0.002692804505292362,0.08020349819613833
-4.78,-0.002023673305315264,0.05875624938317982
-4.77875,-0.001689107705326411,0.04334103929885599
-4.7775,-0.001019976505349617,0.02155867722320493
-4.77625,0.001991113894547325,-0.05518225993566221
-4.775,0.003663941894489309,-0.1034385697647969
-4.77375,0.003329376294501521,-0.08936381273131483
-4.7725,0.002660245094524423,-0.06456543129133155
-4.77125,0.001991113894547325,-0.04613420184269534
-4.77,0.001656548294558319,-0.03507546417349883
-4.76875,0.0006528514945931285,-0.002569477691373388
-4.7675,-0.002023673305315264,0.07015010031506402
-4.76625,-0.003361935705268852,0.09930495417016624
-4.765,-0.003027370105280607,0.08824621650098755
-4.76375,-0.002358238905303813,0.06579362789993183
-4.7625,-0.001689107705326715,0.04803262497670058
-4.76125,-0.001354542105338318,0.03496320773130993
-4.76,0.0006528514945931285,-0.02703274586865418
-4.75875,0.003329376294501521,-0.09472562493455444
-4.7575,0.00366394189449007,-0.09707141777347178
-4.75625,0.002994810694512668,-0.07260814959618155
-4.755,0.002325679494535874,-0.05183112730863745
-4.75375,0.001991113894547325,-0.03943193658864581
-4.7525,0.001321982694570531,-0.0226762734535296
-4.75125,-0.001354542105338166,0.04736239845129563
-4.75,-0.00336193570526946,0.09360802870423739
-4.74875,-0.00336193570526946,0.09327291544153492
-4.7475,-0.002692804505292058,0.07115544010316262
-4.74625,-0.002023673305315264,0.05171887086642782
-4.745,-0.001354542105338166,0.03831434035832876
-4.74375,-1.627970538457834e-05,-0.004245044004866416
-4.7425,0.002994810694512972,-0.08299666073996777
-4.74125,0.00366394189449007,-0.1047790228156287
-4.74,0.002994810694512972,-0.08098598116375291
-4.73875,0.002325679494535722,-0.05819827929997734
-4.7375,0.001991113894547325,-0.0424479559529681
-4.73625,0.001656548294558776,-0.0323945580718938
-4.735,-0.0003508453053716058,0.0245746965875013
-4.73375,-0.002692804505292667,0.08523019713668187
-4.7325,-0.00336193570526946,0.0993049541701795
-4.73125,-0.003027370105280911,0.07986838493343586
-4.73,-0.002023673305315721,0.05775090959508246
-4.72875,-0.001689107705326715,0.04233569951075847
-4.7275,-0.001019976505349617,0.01820754459618016
-4.72625,0.001991113894547325,-0.06087918540160431
-4.725,0.003998507494478315,-0.1064545891291337
-4.72375,0.003329376294501521,-0.09003403925671978
-4.7225,0.002660245094524423,-0.06523565781673651
-4.72125,0.001991113894547629,-0.047139541630811
-4.72,0.001656548294558776,-0.03574569069891857
-4.71875,0.0006528514945931285,-0.001564137903265958
-4.7175,-0.002023673305315264,0.06981498705236155
-4.71625,-0.003361935705269308,0.09829961438206673
-4.715,-0.003027370105280911,0.08657065018748539
-4.71375,-0.002358238905303813,0.06411806158641944
-4.7125,-0.001689107705327019,0.04669217192589859
-4.71125,-0.001354542105338166,0.03328764141779161
-4.71,0.0009874170945816775,-0.03004876523297647
-4.70875,0.003329376294501521,-0.09673630451076931
-4.7075,0.003663941894489766,-0.09807675756156763
-4.70625,0.002994810694512972,-0.072608149596191
-4.705,0.002325679494535874,-0.05149601404593497
-4.70375,0.00165654829455908,-0.03876171006324665
-4.7025,0.001321982694569009,-0.02133582040267977
-4.70125,-0.001354542105338166,0.04970819129021296
-4.7,-0.003027370105280911,0.09427825522964234
-4.69875,-0.003361935705269308,0.09360802870423769
-4.6975,-0.002692804505292362,0.07115544010317146
-4.69625,-0.002023673305315264,0.05104864434102287
-4.695,-0.001354542105338166,0.03797922709562628
-4.69375,-1.627970538260038e-05,-0.005585497055731032
-4.6925,0.002994810694512972,-0.08333177400267025
-4.69125,0.00399850749447862,-0.1034385697648188
-4.69,0.003329376294501825,-0.07998064137565615
-4.68875,0.002325679494535874,-0.05685782624917459
-4.6875,0.001991113894547325,-0.04177772942756315
-4.68625,0.001656548294558776,-0.03205944480919132
-4.685,-0.0003508453053735838,0.02524492311295975
-4.68375,-0.002692804505292362,0.08590042366208044
-4.6825,-0.00336193570526946,0.09896984090747701
-4.68125,-0.002692804505292667,0.07986838493344454
-4.68,-0.002023673305315264,0.0590913626458823
-4.67875,-0.001689107705326715,0.0433410392988659
-4.6775,-0.001019976505349617,0.02021822417239502
-4.67625,0.001991113894548238,-0.05618759972379128
-4.675,0.00399850749447862,-0.1037736830275213
-4.67375,0.003329376294501521,-0.08835847294320739
-4.6725,0.002660245094524727,-0.06389520476593771
-4.67125,0.001991113894547173,-0.04579908857998814
-4.67,0.001656548294558776,-0.03541057743621609
-4.66875,0.0006528514945931285,0.0001114284102464246
-4.6675,-0.002023673305314047,0.07149055336584148
-4.66625,-0.00336193570526946,0.0993049541701795
-4.665,-0.003027370105280911,0.08724087671289034
-4.66375,-0.002358238905303813,0.06411806158641944
-4.6625,-0.001689107705326563,0.04602194540047932
-4.66125,-0.001354542105338166,0.0319471883669817
-4.66,0.001321982694570227,-0.03339989786000123
-4.65875,0.003663941894489005,-0.09841187082425214
-4.6575,0.00366394189449007,-0.09774164429887673
-4.65625,0.002994810694512972,-0.072608149596191
-4.655,0.002325679494535874,-0.05183112730863745
-4.65375,0.001656548294558471,-0.03876171006323263
-4.6525,0.0009874170945816775,-0.02066559387730712
-4.65125,-0.001354542105338166,0.04970819129021296
-4.65,-0.003361935705268547,0.09528359501772904
-4.64875,-0.00336193570526946,0.09360802870423739
-4.6475,-0.002692804505292362,0.07149055336587394
-4.64625,-0.002023673305315264,0.05205398412913029
-4.645,-0.001689107705325954,0.0389845668837142
-4.64375,-1.627970538396967e-05,-0.003909930742183295
-4.6425,0.002660245094524423,-0.08132109442645538
-4.64125,0.003663941894489614,-0.1027683432394041
-4.64,0.003329376294501065,-0.07998064137563511
-4.63875,0.002325679494535874,-0.05719293951187707
-4.6375,0.001991113894547325,-0.04211284269026563
-4.63625,0.001656548294558928,-0.0320594448091959
-4.635,-0.0003508453053725187,0.0262502629010396
-4.63375,-0.002692804505292362,0.0862355369247829
-4.6325,-0.00336193570526946,0.09863472764477454
-4.63125,-0.002692804505292058,0.07886304514531867
-4.63,-0.002023673305315264,0.05741579633236992
-4.62875,-0.001354542105338166,0.042000586248056
-4.6275,-0.0006854109053613721,0.01686709154538168
-4.62625,0.002325679494535874,-0.06221963845241422
-4.625,0.00399850749447862,-0.1067897023918436
-4.62375,0.003329376294501521,-0.0896989259940173
-4.6225,0.002660245094524118,-0.06523565781672813
-4.62125,0.001991113894547325,-0.0468044283681003
-4.62,0.001656548294558776,-0.03641591722432352
-4.61875,0.0006528514945935849,0.0001114284102298121
-4.6175,-0.002023673305315264,0.07149055336587394
-4.61625,-0.00336193570526946,0.09863472764477454
-4.615,-0.003027370105280911,0.0862355369247829
-4.61375,-0.002358238905303509,0.06344783506100642
-4.6125,-0.001689107705326715,0.04568683213778324
-4.61125,-0.001019976505349617,0.03127696184157674
-4.61,0.001321982694569161,-0.03641591722429274
-4.60875,0.00366394189449007,-0.1010927769259
-4.6075,0.00366394189449007,-0.09774164429887673
-4.60625,0.002994810694512972,-0.072608149596191
-4.605,0.002325679494536178,-0.05149601404594457
-4.60375,0.001991113894547325,-0.03909682332594334
-4.6025,0.001321982694570227,-0.01999536735190217
-4.60125,-0.001354542105338166,0.05138375760372534
-4.6,-0.003027370105280911,0.09461336849234421
-4.59875,-0.003027370105280911,0.09327291544153492
-4.5975,-0.002358238905303813,0.07115544010317146
-4.59625,-0.001689107705327019,0.05104864434103201
-4.595,-0.001354542105338166,0.03831434035832876
-4.59375,0.0003182858946045794,-0.005250383792993201
-4.5925,0.002994810694512972,-0.08333177400267025
-4.59125,0.003663941894489918,-0.104108796290213
-4.59,0.003329376294501521,-0.08031575463834796
-4.58875,0.002660245094524423,-0.05786316603728203
-4.5875,0.001991113894547629,-0.04345329574108208
-4.58625,0.001656548294558776,-0.03306478459729876
-4.585,-0.0003508453053725187,0.02558003637563465
-4.58375,-0.002692804505292362,0.084895083873973
-4.5825,-0.003361935705269156,0.09729427459395579
-4.58125,-0.002692804505292362,0.07785770535722099
-4.58,-0.002023673305315264,0.05708068306966745
-4.57875,-0.001689107705326867,0.04200058624806285
-4.5775,-0.0006854109053598507,0.0175373180707397
-4.57625,0.001991113894547325,-0.06054407213890184
-4.575,0.00366394189449007,-0.1054492493410337
-4.57375,0.003329376294501673,-0.08869358620591748
-4.5725,0.002660245094524423,-0.06423031802862908
-4.57125,0.001991113894547325,-0.04613420184269534
-4.57,0.001656548294558776,-0.03574569069891857
-4.56875,0.0003182858946035144,0.001116768198386009
-4.5675,-0.002023673305315264,0.07182566662857641
-4.56625,-0.00336193570526946,0.09829961438207206
-4.565,-0.003027370105281064,0.08556531039938374
-4.56375,-0.002358238905303813,0.06277760853560954
-4.5625,-0.001689107705326715,0.04602194540048572
-4.56125,-0.001354542105338166,0.03127696184157674
-4.56,0.001321982694571292,-0.03809148353786486
-4.55875,0.00366394189449007,-0.1017630034513065
-4.5575,0.00366394189449007,-0.09606607798536436
-4.55625,0.002994810694513276,-0.07160280980809469
-4.555,0.002325679494535874,-0.05049067425782754
-4.55375,0.001991113894547325,-0.03842659680053838
-4.5525,0.001321982694570227,-0.01865491430109226
-4.55125,-0.001354542105338927,0.05305932391725692
-4.55,-0.003027370105280911,0.09528359501774977
-4.54875,-0.00336193570526946,0.09360802870423739
-4.5475,-0.002358238905304269,0.07082032684047936
-4.54625,-0.002023673305315112,0.05104864434101723
-4.545,-0.001689107705326715,0.03864945362103123
-4.54375,0.0003182858946045794,-0.008936629682720442
-4.5425,0.002994810694511755,-0.08735313315506429
-4.54125,0.00366394189449007,-0.1024332299767114
-4.54,0.002994810694512972,-0.07763484853672814
-4.53875,0.002325679494535874,-0.05518225993566221
-4.5375,0.001991113894547173,-0.03976704985134341
-4.53625,0.001656548294558776,-0.02904342544486904
-4.535,-0.0006854109053610678,0.03060673531617179
-4.53375,-0.003027370105279846,0.08858132976367389
-4.5325,-0.003696501305258009,0.1006454072209894
-4.53125,-0.002692804505292362,0.08053861145884081
-4.53,-0.002358238905303813,0.05942647590858478
-4.52875,-0.001689107705326259,0.04434637908696221
-4.5275,-0.0006854109053610678,0.01988311090969254
-4.52625,0.001991113894547325,-0.0581982792999845
-4.525,0.003663941894489309,-0.1027683432393936
-4.52375,0.003329376294501521,-0.08668290662969501
-4.5225,0.002660245094524423,-0.06255475171511669
-4.52125,0.001991113894547325,-0.04512886205458792
-4.52,0.001656548294558167,-0.03474035091079376
-4.51875,0.0003182858946045794,0.00346256103727119
-4.5175,-0.002358238905303813,0.0735012329420888
-4.51625,-0.003361935705269004,0.1003102939582747
-4.515,-0.003027370105280607,0.08724087671287997
-4.51375,-0.002358238905303813,0.06445317484912193
-4.5125,-0.001689107705326715,0.04702728518859314
-4.51125,-0.001354542105338318,0.03161207510428623
-4.51,0.0009874170945816775,-0.036751030487026
-4.50875,0.003329376294501521,-0.0997523238750916
-4.5075,0.003329376294501521,-0.09506073819725692
-4.50625,0.002660245094524118,-0.06992724349456188
-4.505,0.001991113894547325,-0.04948533446972011
-4.50375,0.001656548294558776,-0.03641591722432352
-4.5025,0.000987417094581982,-0.0166442347248864
-4.50125,-0.001689107705326715,0.05540511675615506
-4.5,-0.00336193570526946,0.09796450111936959
-4.49875,-0.00336193570526946,0.09528359501774977
-4.4975,-0.002692804505292058,0.07249589315397237
-4.49625,-0.002023673305315264,0.05272421065453525
-4.495,-0.001689107705326715,0.04032501993454361
-4.49375,-1.627970538473035e-05,-0.004915270530270154
-4.4925,0.002994810694512972,-0.08232643421456282
-4.49125,0.00366394189449007,-0.1020981167140089
-4.49,0.002994810694512972,-0.07897530158753804
-4.48875,0.002325679494535722,-0.05618759972376309
-4.4875,0.001991113894547325,-0.04177772942756315
-4.48625,0.001656548294558776,-0.0310541050210839
-4.485,-0.0006854109053600027,0.02993650879073911
-4.48375,-0.003027370105281216,0.08757598997559814
-4.4825,-0.003696501305258009,0.0993049541701795
-4.48125,-0.003027370105280911,0.07886304514532842
-4.48,-0.002358238905304118,0.057750909595082
-4.47875,-0.001689107705326715,0.04233569951075847
-4.4775,-0.001019976505349617,0.01686709154537025
-4.47625,0.001991113894547325,-0.06188452518971174
-4.475,0.003663941894489918,-0.1051141360783233
-4.47375,0.003329376294501521,-0.08768824641780244
-4.4725,0.002660245094524423,-0.06288986497781918
-4.47125,0.001991113894547629,-0.04512886205459599
-4.47,0.001656548294558776,-0.03474035091081114
-4.46875,0.0003182858946045794,0.003797674299973667
-4.4675,-0.002358238905303813,0.07450657273019623
-4.46625,-0.003696501305257857,0.09997518069557851
-4.465,-0.00336193570526946,0.08690576345018786
-4.46375,-0.002692804505292362,0.06478828811182441
-4.4625,-0.002023673305315569,0.04702728518860122
-4.46125,-0.001354542105338166,0.03228230162968418
-4.46,0.0009874170945816775,-0.03507546417351361
-4.45875,0.003329376294501521,-0.09908209734968665
-4.4575,0.003329376294501217,-0.09673630451075818
-4.45625,0.002660245094524423,-0.07227303633348851
-4.455,0.001991113894547325,-0.05216624057133992
-4.45375,0.001656548294558928,-0.04010216311405625
-4.4525,0.0009874170945804604,-0.01932514082646414
-4.45125,-0.001689107705326715,0.0533944371799402
-4.45,-0.00336193570526946,0.09595382154315472
-4.44875,-0.00336193570526946,0.09226757565342916
-4.4475,-0.002692804505292362,0.06981498705236155
-4.44625,-0.002023673305315264,0.05037841781561792
-4.445,-0.001689107705326715,0.0376441138329238
-4.44375,-1.627970538260038e-05,-0.01161753578437561
-4.4425,0.002994810694512972,-0.08936381273131483
-4.44125,0.00366394189449007,-0.1057843626037362
-4.44,0.002994810694513276,-0.08165620768916884
-4.43875,0.002325679494535874,-0.05920361908809193
-4.4375,0.001991113894547325,-0.04378840900377801
-4.43625,0.001656548294558776,-0.03306478459729876
-4.435,-0.0006854109053621328,0.02826094247728082
-4.43375,-0.003027370105280911,0.0862355369247829
-4.4325,-0.00336193570526946,0.09729427459396463
-4.43125,-0.002692804505292667,0.07685236556912287
-4.43,-0.002023673305315264,0.05507000349345258
-4.42875,-0.001689107705326715,0.03998990667184114
-4.4275,-0.0006854109053610678,0.01150527934213063
-4.42625,0.002325679494536635,-0.06992724349458962
-4.425,0.00399850749447862,-0.1104759482815708
-4.42375,0.003329376294501521,-0.09070426578212473
-4.4225,0.002660245094524727,-0.06657611086755739
-4.42125,0.001991113894547325,-0.04847999468160826
-4.42,0.001991113894547325,-0.03876171006324086
-4.41875,0.0003182858946045794,0.001451881461056331
-4.4175,-0.002358238905302596,0.07182566662854441
-4.41625,-0.00336193570526946,0.09796450111936959
-4.415,-0.003027370105280911,0.08455997061127052
-4.41375,-0.002358238905303813,0.06244249527290707
-4.4125,-0.001689107705326563,0.04501660561237143
-4.41125,-0.001354542105338166,0.02993650879076684
-4.41,0.001321982694570227,-0.03842659680053838
-4.40875,0.003663941894489005,-0.10209811671398
-4.4075,0.00366394189449007,-0.09908209734968665
-4.40625,0.002994810694512972,-0.07428371590970338
-4.405,0.002325679494535874,-0.05384180688485231
-4.40375,0.00199111389454702,-0.04077238963944627
-4.4025,0.001321982694570227,-0.01999536735190217
-4.40125,-0.001354542105338166,0.05272421065453525
-4.4,-0.003361935705268547,0.09528359501773043
-4.39875,-0.003027370105280911,0.09193246239072501
-4.3975,-0.002358238905303813,0.0691447605269566
-4.39625,-0.001689107705326715,0.05004330455291543
-4.395,-0.001354542105337405,0.03764411383290155
-4.39375,0.0003182858946045794,-0.01128242252163778
-4.3925,0.002994810694512972,-0.08802335968050491
-4.39125,0.003998507494478163,-0.1061194758664304
-4.39,0.003329376294501217,-0.08199132095185027
-4.38875,0.002660245094524423,-0.05987384561349688
-4.3875,0.001991113894547325,-0.04512886205458792
-4.38625,0.001656548294558928,-0.03407012438541122
-4.385,-0.0006854109053610678,0.02826094247725446
-4.38375,-0.002692804505292362,0.08657065018748539
-4.3825,-0.00336193570526946,0.09628893480585721
-4.38125,-0.002692804505292058,0.07618213904369885
-4.38,-0.002023673305315264,0.05473489023075011
-4.37875,-0.001354542105338166,0.04032501993454361
-4.3775,-0.0003508453053729752,0.01083505281673908
-4.37625,0.002660245094524423,-0.07126769654538109
-4.375,0.00399850749447862,-0.1104759482815708
-4.37375,0.00366394189449007,-0.09070426578212473
-4.3725,0.002994810694512668,-0.06657611086753819
-4.37125,0.002325679494535874,-0.04847999468161268
-4.37,0.001991113894547325,-0.03842659680053838
-4.36875,0.0003182858946053401,0.003127447774549819
-4.3675,-0.002023673305315264,0.07383634620479128
-4.36625,-0.003027370105280911,0.0993049541701795
-4.365,-0.002692804505292362,0.08523019713667547
-4.36375,-0.002023673305315112,0.06277760853560177
-4.3625,-0.001689107705326715,0.04568683213778324
-4.36125,-0.001019976505349617,0.02926628226536189
-4.36,0.001656548294557558,-0.04311818247834014
-4.35875,0.00399850749447862,-0.1057843626037333
-4.3575,0.00399850749447862,-0.09941721061238912
-4.35625,0.002994810694512972,-0.07428371590970338
-4.355,0.002660245094524575,-0.05350669362215928
-4.35375,0.002325679494535874,-0.04043727637675324
-4.3525,0.001321982694570227,-0.01831980103838979
-4.35125,-0.001354542105338166,0.05574023001885754
-4.35,-0.003027370105280911,0.09729427459396264
-4.34875,-0.003027370105280911,0.09293780217883243
-4.3475,-0.002358238905303813,0.07015010031506402
-4.34625,-0.001689107705327019,0.05071353107832923
-4.345,-0.001354542105338166,0.0376441138329238
-4.34375,0.0006528514945931285,-0.01195264904704273
-4.3425,0.003329376294501521,-0.08835847294320739
-4.34125,0.003998507494478315,-0.1044439095529151
-4.34,0.003329376294501521,-0.07998064137564548
-4.33875,0.002660245094524423,-0.05752805277457955
-4.3375,0.002325679494536026,-0.04211284269027264
-4.33625,0.001991113894547325,-0.03004876523297647
-4.335,-0.0003508453053725187,0.03261741489238665
-4.33375,-0.002692804505292362,0.08992178281451015
-4.3325,-0.003361935705269156,0.09997518069557515
-4.33125,-0.002692804505292362,0.07953327167073337
-4.33,-0.002023673305315264,0.05808602285777487
-4.32875,-0.00135454210533847,0.04300592603617028
-4.3275,-0.0003508453053711494,0.0128457323929032
-4.32625,0.002660245094524423,-0.06925701696916622
-4.325,0.004333073094467168,-0.1081301554426535
-4.32375,0.003663941894490375,-0.0886935862059187
-4.3225,0.002994810694512972,-0.06456543129133155
-4.32125,0.002325679494535874,-0.04713954163080277
-4.32,0.001991113894547325,-0.036751030487026
-4.31875,0.0003182858946033623,0.005473240613518509
-4.3175,-0.002358238905303813,0.07685236556911357
-4.31625,-0.00336193570526946,0.1016507470090968
-4.315,-0.003027370105281064,0.08724087671289689
-4.31375,-0.002358238905303813,0.06545851463722936
-4.3125,-0.001689107705326715,0.04736239845129563
-4.31125,-0.001019976505349617,0.03228230162968418
-4.31,0.001321982694571444,-0.03842659680056672
-4.30875,0.00399850749447862,-0.100757663663199
-4.3075,0.00366394189449007,-0.09640119124806683
-4.30625,0.003329376294501673,-0.07126769654539253
-4.305,0.002660245094524423,-0.05149601404593497
-4.30375,0.001991113894547325,-0.03876171006324086
-4.3025,0.001321982694570227,-0.01630912146217493
-4.30125,-0.001354542105338927,0.058086022857793
-4.3,-0.003027370105280911,0.09796450111936959
-4.29875,-0.003027370105280911,0.09461336849234482
-4.2975,-0.002358238905304118,0.07182566662858678
-4.29625,-0.001689107705326563,0.05238909739182698
-4.295,-0.001354542105338166,0.03965479340913866
-4.29375,0.0003182858946045794,-0.01128242252163778
-4.2925,0.003329376294500152,-0.08768824641776769
-4.29125,0.00399850749447862,-0.1027683432394139
-4.29,0.003329376294501521,-0.07864018832483557
-4.28875,0.002660245094524423,-0.05618759972376964
-4.2875,0.002325679494535722,-0.04211284269025999
-4.28625,0.001991113894547325,-0.02971365197027399
-4.285,-0.0003508453053725187,0.03429298120589903
-4.28375,-0.002692804505291297,0.09126223586529414
-4.2825,-0.00336193570526946,0.09964006743288197
-4.28125,-0.002692804505292362,0.07953327167073337
-4.28,-0.002023673305315264,0.05875624938317982
-4.27875,-0.00135454210533771,0.04468149234966286
-4.2775,-0.0003508453053725187,0.0161968650199653
-4.27625,0.002325679494535874,-0.06356009150322413
-4.275,0.003998507494477859,-0.1041087962902054
-4.27375,0.003329376294501521,-0.08601268010429006
-4.2725,0.002660245094524423,-0.06221963845241422
-4.27125,0.002325679494535874,-0.04412352226648048
-4.27,0.001991113894546564,-0.03407012438538668
-4.26875,0.0003182858946045794,0.008824373240510816
-4.2675,-0.002358238905303813,0.07852793188262594
-4.26625,-0.003361935705269004,0.102320973534491
-4.265,-0.003027370105280607,0.08757598997558275
-4.26375,-0.002358238905303813,0.06545851463722936
-4.2625,-0.001689107705326715,0.04803262497670058
-4.26125,-0.001019976505349921,0.03161207510428669
-4.26,0.001656548294558776,-0.04043727637675324
-4.25875,0.00366394189449007,-0.101427890188604
-4.2575,0.00366394189449007,-0.09472562493455444
-4.25625,0.002994810694512668,-0.06992724349456188
-4.255,0.002325679494535874,-0.04948533446972011
-4.25375,0.001991113894547325,-0.03775637027513343
-4.2525,0.001321982694570531,-0.01463355514867306
-4.25125,-0.001354542105338166,0.05942647590858478
-4.25,-0.003027370105280911,0.09796450111936959
-4.24875,-0.003027370105280911,0.09394314196693987
-4.2475,-0.002358238905303509,0.07115544010316277
-4.24625,-0.001689107705326715,0.05205398412913029
-4.245,-0.001354542105338166,0.03965479340913866
-4.24375,0.0006528514945922156,-0.01295798883512624
-4.2425,0.003329376294501521,-0.08936381273131483
-4.24125,0.00399850749447862,-0.1017630034513065
-4.24,0.003329376294501521,-0.07696462201132319
-4.23875,0.002660245094524118,-0.05451203341025056
-4.2375,0.001991113894547325,-0.03976704985134829
-4.23625,0.001656548294558776,-0.02803808565676161
-4.235,-0.0006854109053600027,0.03563343425668
-4.23375,-0.002692804505292667,0.0909271226026214
-4.2325,-0.00336193570526946,0.0993049541701795
-4.23125,-0.002692804505292362,0.07852793188262594
-4.23,-0.002023673305315569,0.05775090959508185
-4.22875,-0.001689107705326715,0.04300592603616343
-4.2275,-0.0006854109053610678,0.01418618544375044
-4.22625,0.002325679494535874,-0.06490054455403403
-4.225,0.003998507494478315,-0.1041087962902156
-4.22375,0.003329376294501521,-0.08601268010429006
-4.2225,0.002660245094524423,-0.06221963845241422
-4.22125,0.001991113894547629,-0.04445863552919103
-4.22,0.001991113894547325,-0.03541057743621609
-4.21875,0.0003182858946045794,0.008489259977808339
-4.2175,-0.002358238905303813,0.07685236556911357
-4.21625,-0.003361935705269156,0.1003102939582801
-4.215,-0.002692804505292362,0.08523019713667547
-4.21375,-0.002358238905303813,0.06344783506101449
-4.2125,-0.001689107705327019,0.04635705866319596
-4.21125,-0.001019976505349617,0.03027162205346932
-4.21,0.001321982694570227,-0.03976704985134829
-4.20875,0.00366394189449007,-0.0997523238750916
-4.2075,0.003663941894489766,-0.09305005862103079
-4.20625,0.002994810694512972,-0.0682516771810588
-4.205,0.002325679494535874,-0.04847999468161268
-4.20375,0.001991113894547477,-0.03641591722432901
-4.2025,0.001321982694568857,-0.0136282153605222
-4.20125,-0.001689107705326715,0.05875624938317982
-4.2,-0.00336193570526946,0.09695916133126216
-4.19875,-0.003027370105281064,0.09159734912802497
-4.1975,-0.002358238905303813,0.06847453400155165
-4.19625,-0.001689107705326715,0.04937307802751048
-4.195,-0.001354542105338166,0.03697388730751885
-4.19375,0.0006528514945943456,-0.01731446125031619
-4.1925,0.003329376294501521,-0.09170960557023215
-4.19125,0.00399850749447862,-0.1010927769259015
-4.19,0.002994810694513428,-0.07562416896052487
-4.18875,0.002325679494535874,-0.05350669362214983
-4.1875,0.001991113894547325,-0.03976704985134829
-4.18625,0.001321982694570227,-0.02803808565676161
-4.185,-0.0006854109053619807,0.03596854751943596
-4.18375,-0.002692804505292362,0.08992178281451015
-4.1825,-0.00336193570526946,0.09729427459396463
-4.18125,-0.002692804505292667,0.07584702578101589
-4.18,-0.002023673305315264,0.05540511675615506
-4.17875,-0.001354542105338166,0.04099524645994856
-4.1775,-0.0003508453053725187,0.009494599765915769
-4.17625,0.002660245094525031,-0.07059747001999106
-4.175,0.00399850749447862,-0.1034385697648188
-4.17375,0.003329376294501521,-0.08232643421456282
-4.1725,0.002660245094524727,-0.05819827929999548
-4.17125,0.001991113894547173,-0.04110750290215377
-4.17,0.001656548294558776,-0.03138921828378637
-4.16875,-1.627970538396967e-05,0.01184039260483311
-4.1675,-0.002358238905302748,0.07852793188259562
-4.16625,-0.00336193570526946,0.1003102939582869
-4.165,-0.003027370105280911,0.08455997061127052
-4.16375,-0.002023673305315264,0.06244249527290707
-4.1625,-0.001689107705326411,0.04602194540047825
-4.16125,-0.001019976505349617,0.02960139552806436
-4.16,0.001321982694570227,-0.03976704985134829
-4.15875,0.003663941894489005,-0.09774164429885038
-4.1575,0.003329376294501521,-0.09036915251942225
-4.15625,0.002660245094524423,-0.06490054455403403
-4.155,0.001991113894547325,-0.04512886205458792
-4.15375,0.001656548294558471,-0.03339989785999103
-4.1525,0.0009874170945816775,-0.0109473092589353
-4.15125,-0.001689107705326715,0.06110204222209716
-4.15,-0.0033619357052687,0.09662404806854352
-4.14875,-0.00336193570526946,0.09092712260261758
-4.1475,-0.002358238905303813,0.0678043074761467
-4.14625,-0.001689107705326715,0.04937307802751048
-4.145,-0.001354542105337405,0.03764411383289972
-4.14375,0.0003182858946045794,-0.0153037816740675
-4.1425,0.003329376294501521,-0.08768824641780244
-4.14125,0.003663941894489918,-0.09707141777346751
-4.14,0.002994810694512668,-0.07260814959618109
-4.13875,0.002325679494535874,-0.05082578752053002
-4.1375,0.001656548294558776,-0.03641591722432352
-4.13625,0.001321982694570379,-0.02468695302974218
-4.135,-0.001019976505349617,0.0376441138329238
-4.13375,-0.003027370105280911,0.08992178281451015
-4.1325,-0.00336193570526946,0.09561870828045226
-4.13125,-0.002692804505292058,0.0748416859928894
-4.13,-0.002023673305315264,0.05439977696804763
-4.12875,-0.001689107705326715,0.04032501993454361
-4.1275,-0.0006854109053615243,0.01117016607944141
-4.12625,0.002325679494535874,-0.06691122413024889
-4.125,0.00366394189449007,-0.101427890188604
-4.12375,0.002994810694512972,-0.08132109442645538
-4.1225,0.002325679494535569,-0.05786316603727425
-4.12125,0.001656548294558776,-0.04077238963945572
-4.12,0.001656548294558776,-0.03205944480919132
-4.11875,-1.627970538320899e-05,0.01083505281670617
-4.1175,-0.002358238905303813,0.07517679925560118
-4.11625,-0.00336193570526946,0.09628893480585721
-4.115,-0.003027370105280911,0.07986838493343586
-4.11375,-0.002358238905303509,0.05775090959506493
-4.1125,-0.001689107705326715,0.04133035972265105
-4.11125,-0.001019976505349617,0.02457469658752721
-4.11,0.001321982694569161,-0.04546397531725854
-4.10875,0.003663941894489918,-0.1000874371377897
-4.1075,0.003329376294501521,-0.09036915251942225
-4.10625,0.002660245094524423,-0.06557077107943898
-4.105,0.001991113894547629,-0.04613420184270418
-4.10375,0.001656548294558776,-0.03474035091081114
-4.1025,0.0006528514945931285,-0.01195264904704273
-4.10125,-0.001689107705326715,0.05808602285777487
-4.1,-0.003361935705269308,0.09293780217882938
-4.09875,-0.003027370105280911,0.0862355369247829
-4.0975,-0.002358238905303813,0.06378294832371698
-4.09625,-0.001689107705327019,0.04568683213779147
-4.095,-0.001354542105338166,0.03395786794319656
-4.09375,0.0003182858946045794,-0.01865491430109226
-4.0925,0.002994810694512972,-0.08936381273131483
-4.09125,0.003663941894489614,-0.09807675756156824
-4.09,0.002660245094524423,-0.0739486026470009
-4.08875,0.001991113894547325,-0.05216624057133992
-4.0875,0.001656548294558928,-0.03809148353784231
-4.08625,0.001321982694570227,-0.02636251934324923
-4.085,-0.001019976505349617,0.03563343425670894
-4.08375,-0.003027370105280911,0.084895083873973
-4.0825,-0.003361935705269156,0.0905920093399058
-4.08125,-0.002692804505292362,0.07015010031506402
-4.08,-0.002023673305315264,0.05004330455291543
-4.07875,-0.001689107705326867,0.03630366078212015
-4.0775,-0.0003508453053713016,0.007148806926964449
-4.07625,0.002325679494535874,-0.06758145065565384
-4.075,0.003329376294501521,-0.100757663663199
-4.07375,0.002994810694513124,-0.08098598116376191
-4.0725,0.002325679494535874,-0.05719293951187707
-4.07125,0.001991113894547325,-0.03976704985134829
-4.07,0.001321982694570227,-0.03071899175838142
-4.06875,-1.627970538503467e-05,0.01117016607945711
-4.0675,-0.002358238905303813,0.0748416859928987
-4.06625,-0.00336193570526946,0.09427825522964234
-4.065,-0.003027370105281064,0.07819281861993078
-4.06375,-0.002023673305315264,0.05674556980696497
-4.0625,-0.001689107705326715,0.04099524645994856
-4.06125,-0.001019976505349617,0.02524492311293217
-4.06,0.00132198269457114,-0.04244795595299264
-4.05875,0.003329376294501521,-0.09640119124806683
-4.0575,0.003329376294501521,-0.08802335968050491
-4.05625,0.002660245094524727,-0.06356009150323524
-4.055,0.001991113894547325,-0.04445863552918296
-4.05375,0.001656548294558776,-0.03339989786000123
-4.0525,0.0006528514945931285,-0.0109473092589353
-4.05125,-0.001689107705327324,0.05708068306968284
-4.05,-0.003027370105280911,0.09092712260261758
-4.04875,-0.003027370105280911,0.08321951756046062
-4.0475,-0.002358238905304118,0.06143715548480955
-4.04625,-0.001689107705326563,0.04367615256156304
-4.045,-0.001354542105338166,0.0319471883669817
-4.04375,0.0006528514945931285,-0.02066559387730712
-4.0425,0.003329376294500304,-0.08936381273128359
-4.04125,0.003329376294501521,-0.09573096472266188
-4.04,0.002660245094524423,-0.07093258328267861
-4.03875,0.001991113894547325,-0.04948533446972011
-4.0375,0.001656548294558623,-0.03574569069891324
-4.03625,0.001321982694570227,-0.02401672650433189
-4.035,-0.001019976505349617,0.03730900057022132
-4.03375,-0.003027370105279998,0.08590042366205834
-4.0325,-0.003027370105280911,0.09025689607721263
-4.03125,-0.002358238905303813,0.06947987378965907
-4.03,-0.001689107705326715,0.049037964764808
-4.02875,-0.00135454210533771,0.03563343425669478
-4.0275,-0.0003508453053725187,0.00446790082537862
-4.02625,0.002325679494535874,-0.07093258328267861
-4.025,0.003663941894489461,-0.1000874371377808
-4.02375,0.002994810694512972,-0.07830507506213309
-4.0225,0.002325679494535874,-0.05484714667295974
-4.02125,0.001656548294558776,-0.03842659680053838
-4.02,0.001656548294558015,-0.02937853870755216
-4.01875,-1.627970538396967e-05,0.01318084565564301
-4.0175,-0.002358238905303813,0.0748416859928987
-4.01625,-0.003361935705269004,0.09293780217882421
-4.015,-0.002692804505292058,0.07651725230640148
-4.01375,-0.002023673305315264,0.05540511675615506
-4.0125,-0.001689107705326715,0.03998990667184114
-4.01125,-0.001019976505349921,0.0242395833248319
-4.01,0.001656548294558776,-0.04345329574107553
-4.00875,0.00366394189449007,-0.09539585145995941
-4.0075,0.003329376294501521,-0.08500734031618262
-4.00625,0.002660245094524118,-0.06087918540159578
-4.005,0.001991113894547325,-0.04211284269026563
-4.00375,0.001656548294558776,-0.03138921828378637
-4.0025,0.0006528514945935849,-0.008266403157326005
-4.00125,-0.001689107705326715,0.0590913626458823
-4,-0.003027370105280911,0.09159734912802253
-3.99875,-0.003027370105280911,0.0835546308231631
-3.9975,-0.002023673305315264,0.06110204222209716
-3.99625,-0.001689107705326715,0.04267081277346095
-3.995,-0.001019976505349617,0.03127696184157674
-3.99375,0.0006528514945931285,-0.02133582040271208
-3.9925,0.003329376294501521,-0.08902869946861235
-3.99125,0.00366394189449007,-0.09338517188374454
-3.99,0.002660245094524423,-0.06892190370646376
-3.98875,0.001991113894547325,-0.04780976815620773
-3.9875,0.001656548294558776,-0.03507546417351361
-3.98625,0.001321982694570227,-0.02334649997892694
-3.985,-0.001019976505349617,0.03730900057022132
-3.98375,-0.002692804505292362,0.08422485734856805
-3.9825,-0.003027370105280911,0.08791110323829529
-3.98125,-0.002358238905303813,0.06679896768803927
-3.98,-0.001689107705326715,0.04669217192589067
-3.97875,-0.001354542105338166,0.03429298120589903
-3.9775,-0.0003508453053725187,0.001786994723758807
-3.97625,0.002660245094524423,-0.07294326285889347
-3.975,0.00366394189449007,-0.09941721061238912
-3.97375,0.002994810694512972,-0.07729973527402567
-3.9725,0.001991113894547325,-0.05384180688485231
-3.97125,0.001656548294558776,-0.03775637027513343
-3.97,0.001321982694570227,-0.02904342544486904
-3.96875,-1.627970538396967e-05,0.01452129870645292
-3.9675,-0.002358238905303813,0.07450657273019623
-3.96625,-0.00336193570526946,0.09226757565342748
-3.965,-0.002692804505292362,0.0748416859928987
-3.96375,-0.002023673305315264,0.0533944371799402
-3.9625,-0.001354542105338166,0.0376441138329238
-3.96125,-0.0006854109053610678,0.01988311090969254
-3.96,0.001656548294558776,-0.05049067425782754
-3.95875,0.00366394189449007,-0.09941721061238912
-3.9575,0.003329376294501521,-0.08467222705348015
-3.95625,0.002325679494535874,-0.06020895887619936
-3.955,0.001991113894547325,-0.04177772942756315
-3.95375,0.001656548294558776,-0.03205944480919132
-3.9525,0.0006528514945931285,-0.007596176631910537
-3.95125,-0.001689107705326715,0.0590913626458823
-3.95,-0.003027370105280911,0.08992178281451015
-3.94875,-0.002692804505292362,0.08154395124694823
-3.9475,-0.002023673305315264,0.0590913626458823
-3.94625,-0.001354542105338166,0.04233569951075847
-3.945,-0.001019976505349617,0.03060673531617179
-3.94375,0.0006528514945931285,-0.02368161324162941
-3.9425,0.003329376294501521,-0.0896989259940173
-3.94125,0.003329376294501521,-0.09237983209563712
-3.94,0.002660245094524423,-0.06724633739295137
-3.93875,0.001991113894547325,-0.04646931510539782
-3.9375,0.001656548294558776,-0.03339989786000123
-3.93625,0.001321982694570227,-0.0210007071400096
-3.935,-0.001019976505349617,0.03931968014643619
-3.93375,-0.002692804505292362,0.08523019713667547
-3.9325,-0.003027370105280911,0.08891644302640273
-3.93125,-0.002358238905303813,0.06746919421344422
-3.93,-0.001689107705326715,0.04803262497670058
-3.92875,-0.001354542105338166,0.03496320773130399
-3.9275,-0.0003508453053725187,0.00346256103727119
-3.92625,0.002325679494535874,-0.06892190370646376
-3.925,0.003329376294501521,-0.09673630451076931
-3.92375,0.002994810694512972,-0.0752890556978108
-3.9225,0.002325679494535874,-0.05216624057133992
-3.92125,0.001656548294558776,-0.03641591722432352
-3.92,0.001321982694570227,-0.02870831218216656
-3.91875,-1.627970538396967e-05,0.01519152523185787
-3.9175,-0.002358238905303813,0.07450657273019623
-3.91625,-0.003027370105280911,0.09092712260261758
-3.915,-0.002692804505292362,0.07383634620479128
-3.91375,-0.002023673305315264,0.05305932391723772
-3.9125,-0.001354542105338166,0.03797922709562628
-3.91125,-0.001019976505349617,0.02222890374860988
-3.91,0.001656548294558776,-0.04345329574107553
-3.90875,0.003329376294501521,-0.09405539840914949
-3.9075,0.002994810694512972,-0.08366688726537272
-3.90625,0.002325679494535874,-0.0595387323507944
-3.905,0.001991113894547325,-0.04110750290215819
-3.90375,0.001656548294558776,-0.03038387849567895
-3.9025,0.0006528514945931285,-0.006255723581100631
-3.90125,-0.001689107705326715,0.06009670243398973
-3.9,-0.003027370105280911,0.0905920093399151
-3.89875,-0.002692804505292362,0.08154395124694823
-3.8975,-0.002023673305315264,0.06009670243398973
-3.89625,-0.001689107705326715,0.04233569951075847
-3.895,-0.001354542105338166,0.03127696184157674
-3.89375,0.0006528514945931285,-0.01999536735190217
-3.8925,0.002994810694512972,-0.08467222705348015
-3.89125,0.003329376294501521,-0.09070426578212473
-3.89,0.002660245094524423,-0.06691122413024889
-3.88875,0.001991113894547325,-0.04646931510539782
-3.8875,0.001656548294558776,-0.03407012438540619
-3.88625,0.001321982694570227,-0.0223411601908195
-3.885,-0.001019976505349617,0.03898456688373371
-3.88375,-0.002692804505292362,0.08455997061127052
-3.8825,-0.003027370105280911,0.0862355369247829
-3.88125,-0.002358238905303813,0.06579362789993183
-3.88,-0.001689107705326715,0.04635705866318819
-3.87875,-0.001354542105338166,0.03362275468049408
-3.8775,-0.0003508453053725187,0.00346256103727119
-3.87625,0.002325679494535874,-0.0682516771810588
-3.875,0.003329376294501521,-0.09640119124806683
-3.87375,0.002994810694512972,-0.07595928222321575
-3.8725,0.002325679494535874,-0.05283646709674487
-3.87125,0.001656548294558776,-0.03708614374972848
-3.87,0.001656548294558776,-0.02870831218216656
-3.86875,-1.627970538396967e-05,0.01552663849456035
-3.8675,-0.002358238905303813,0.07417145946749375
-3.86625,-0.00336193570526946,0.08925155628910519
-3.865,-0.002692804505292362,0.07182566662857641
-3.86375,-0.002023673305315264,0.05138375760372534
-3.8625,-0.001354542105338166,0.0363036607821139
-3.86125,-0.001019976505349617,0.02021822417239502
-3.86,0.001656548294558776,-0.04747465489350525
-3.85875,0.003329376294501521,-0.09606607798536436
-3.8575,0.003329376294501521,-0.08433711379077767
-3.85625,0.002660245094524423,-0.06087918540160431
-3.855,0.001991113894547325,-0.04211284269026563
-3.85375,0.001656548294558776,-0.03172433154648885
-3.8525,0.0006528514945931285,-0.007596176631910537
-3.85125,-0.002023673305315264,0.0590913626458823
-3.85,-0.003027370105280911,0.08858132976370024
-3.84875,-0.002692804505292362,0.07819281861992347
-3.8475,-0.002023673305315264,0.05674556980696497
-3.84625,-0.001354542105338166,0.04032501993454361
-3.845,-0.001019976505349617,0.02926628226536189
-3.84375,0.0006528514945931285,-0.02200604692811703
-3.8425,0.002994810694512972,-0.08601268010429006
-3.84125,0.003329376294501521,-0.09137449230752968
-3.84,0.002660245094524423,-0.06724633739295137
-3.83875,0.001991113894547325,-0.0468044283681003
-3.8375,0.001656548294558776,-0.03440523764810866
-3.83625,0.001321982694570227,-0.0223411601908195
-3.835,-0.001019976505349617,0.03864945362103123
-3.83375,-0.003027370105280911,0.08422485734856805
-3.8325,-0.003027370105280911,0.08590042366208044
-3.83125,-0.002358238905303813,0.06445317484912193
-3.83,-0.001689107705326715,0.04468149234967581
-3.82875,-0.001354542105338166,0.03161207510427922
-3.8275,-1.627970538396967e-05,0.001451881461056331
-3.82625,0.002660245094524423,-0.07026235675727366
-3.825,0.00366394189449007,-0.09707141777347178
-3.82375,0.002994810694512972,-0.07629439548591824
-3.8225,0.002325679494535874,-0.05350669362214983
-3.82125,0.001991113894547325,-0.0380914835378359
-3.82,0.001321982694570227,-0.02971365197027399
-3.81875,-1.627970538396967e-05,0.01586175175726282
-3.8175,-0.002358238905303813,0.0735012329420888
-3.81625,-0.00336193570526946,0.08858132976370024
-3.815,-0.002692804505292362,0.07082032684046899
-3.81375,-0.001689107705326715,0.04937307802751048
-3.8125,-0.001354542105338166,0.03462809446860151
-3.81125,-0.0006854109053610678,0.01653197828266778
-3.81,0.001991113894547325,-0.05283646709674487
-3.80875,0.00366394189449007,-0.09941721061238912
-3.8075,0.003329376294501521,-0.0840020005280752
-3.80625,0.002325679494535874,-0.05920361908809193
-3.805,0.001991113894547325,-0.04077238963945572
-3.80375,0.001321982694570227,-0.03038387849567895
-3.8025,0.0006528514945931285,-0.004245044004885771
-3.80125,-0.002023673305315264,0.06110204222209716
-3.8,-0.003027370105280911,0.08958666955180768
-3.79875,-0.002692804505292362,0.07919815840803089
-3.7975,-0.002023673305315264,0.0577509095950724
-3.79625,-0.001354542105338166,0.04099524645994856
-3.795,-0.001019976505349617,0.02993650879076684
-3.79375,0.0006528514945931285,-0.02267627345352198
-3.7925,0.003329376294501521,-0.08701801989239749
-3.79125,0.003329376294501521,-0.09070426578212473
-3.79,0.002660245094524423,-0.06691122413024889
-3.78875,0.001991113894547325,-0.0468044283681003
-3.7875,0.001656548294558776,-0.03373501112270371
-3.78625,0.0009874170945816775,-0.02066559387730712
-3.785,-0.001019976505349617,0.04066013319724609
-3.78375,-0.003027370105280911,0.08455997061127052
-3.7825,-0.003027370105280911,0.08523019713667547
-3.78125,-0.002358238905303813,0.06411806158641944
-3.78,-0.001689107705326715,0.04501660561237829
-3.77875,-0.001354542105338166,0.03261741489238665
-3.7775,-1.627970538396967e-05,0.0004465416729489012
-3.77625,0.002660245094524423,-0.07059747001997613
-3.775,0.003329376294501521,-0.09539585145995941
-3.77375,0.002660245094524423,-0.0739486026470009
-3.7725,0.001991113894547325,-0.05149601404593497
-3.77125,0.001656548294558776,-0.03608080396162105
-3.77,0.001321982694570227,-0.02837319891946408
-3.76875,-0.0003508453053725187,0.01787243133347768
-3.7675,-0.002358238905303813,0.07551191251830365
-3.76625,-0.00336193570526946,0.09025689607721263
-3.765,-0.002692804505292362,0.07283100641668384
-3.76375,-0.002023673305315264,0.05238909739183277
-3.7625,-0.001689107705326715,0.03730900057022132
-3.76125,-0.001019976505349617,0.02021822417239502
-3.76,0.001656548294558776,-0.04713954163080277
-3.75875,0.003329376294501521,-0.09405539840914949
-3.7575,0.002994810694512972,-0.08199132095186033
-3.75625,0.002325679494535874,-0.05853339256268698
-3.755,0.001656548294558776,-0.04110750290215819
-3.75375,0.001656548294558776,-0.03138921828378637
-3.7525,0.0006528514945931285,-0.004915270530290724
-3.75125,-0.002023673305315264,0.06076692895939469
-3.75,-0.003027370105280911,0.08858132976370024
-3.74875,-0.003027370105280911,0.07752259209451852
-3.7475,-0.002023673305315264,0.05540511675615506
-3.74625,-0.001354542105338166,0.03864945362103123
-3.745,-0.001019976505349617,0.0275907159518495
-3.74375,0.0009874170945816775,-0.02770297239405913
-3.7425,0.003329376294501521,-0.09070426578212473
-3.74125,0.003329376294501521,-0.0910393790448272
-3.74,0.002660245094524423,-0.06624099760484393
-3.73875,0.001991113894547325,-0.04546397531729039
-3.7375,0.001656548294558776,-0.03306478459729876
-3.73625,0.0009874170945816775,-0.01999536735190217
-3.735,-0.001019976505349617,0.04133035972265105
-3.73375,-0.003027370105280911,0.084895083873973
-3.7325,-0.003027370105280911,0.084895083873973
-3.73125,-0.002358238905303813,0.06378294832371698
-3.73,-0.001689107705326715,0.04468149234967581
-3.72875,-0.001354542105338166,0.03228230162968418
-3.7275,-1.627970538396967e-05,-0.001899251165968435
-3.72625,0.002660245094524423,-0.07428371590970338
-3.725,0.00366394189449007,-0.09673630451076931
-3.72375,0.002660245094524423,-0.07495394243510833
-3.7225,0.002325679494535874,-0.05283646709674487
-3.72125,0.001656548294558776,-0.03708614374972848
-3.72,0.001321982694570227,-0.02803808565676161
-3.71875,-0.0003508453053725187,0.01921288438428759
-3.7175,-0.002358238905303813,0.0748416859928987
-3.71625,-0.003027370105280911,0.08891644302640273
-3.715,-0.002692804505292362,0.07115544010317146
-3.71375,-0.002023673305315264,0.05037841781561792
-3.7125,-0.001354542105338166,0.03596854751941142
-3.71125,-0.0006854109053610678,0.01887777112158511
-3.71,0.001656548294558776,-0.04847999468161268
-3.70875,0.003329376294501521,-0.09573096472266188
-3.7075,0.002994810694512972,-0.08232643421456282
-3.70625,0.002325679494535874,-0.05853339256268698
-3.705,0.001656548294558776,-0.04077238963945572
-3.70375,0.001321982694570227,-0.03071899175838142
-3.7025,0.0006528514945931285,-0.004245044004885771
-3.70125,-0.002023673305315264,0.06143715548479964
-3.7,-0.003027370105280911,0.08891644302640273
-3.69875,-0.002692804505292362,0.07785770535722099
-3.6975,-0.002023673305315264,0.05641045654426249
-3.69625,-0.001354542105338166,0.03931968014643619
-3.695,-0.001019976505349617,0.02859605573995693
-3.69375,0.0006528514945931285,-0.02569229281784427
-3.6925,0.002994810694512972,-0.08802335968050491
-3.69125,0.003329376294501521,-0.09036915251942225
-3.69,0.002660245094524423,-0.06624099760484393
-3.68875,0.001991113894547325,-0.04579908857999287
-3.6875,0.001656548294558776,-0.03339989786000123
-3.68625,0.0009874170945816775,-0.01966025408919969
-3.685,-0.001019976505349617,0.04267081277346095
-3.68375,-0.003027370105280911,0.08556531039937795
-3.6825,-0.003027370105280911,0.084895083873973
-3.68125,-0.002358238905303813,0.06378294832371698
-3.68,-0.001689107705326715,0.04501660561237829
-3.67875,-0.001354542105338166,0.03328764141779161
-3.6775,-1.627970538396967e-05,-0.002234364428670911
-3.67625,0.002660245094524423,-0.0739486026470009
-3.675,0.003329376294501521,-0.09506073819725692
-3.67375,0.002660245094524423,-0.07227303633348851
-3.6725,0.001991113894547325,-0.04948533446972011
-3.67125,0.001656548294558776,-0.03407012438540619
-3.67,0.001321982694570227,-0.02569229281784427
-3.66875,-0.0003508453053725187,0.02222890374860988
-3.6675,-0.002692804505292362,0.07785770535722099
-3.66625,-0.00336193570526946,0.09126223586532005
-3.665,-0.002692804505292362,0.07283100641668384
-3.66375,-0.002023673305315264,0.05205398412913029
-3.6625,-0.001354542105338166,0.03730900057022132
-3.66125,-0.0006854109053610678,0.01787243133347768
-3.66,0.001656548294558776,-0.0525013538340424
-3.65875,0.003329376294501521,-0.09573096472266188
-3.6575,0.002994810694512972,-0.07931041485024053
-3.65625,0.002325679494535874,-0.05518225993566221
-3.655,0.001656548294558776,-0.03742125701243095
-3.65375,0.001321982694570227,-0.02803808565676161
-3.6525,0.0003182858946045794,-0.001564137903265958
-3.65125,-0.002023673305315264,0.06411806158641944
-3.65,-0.003027370105280911,0.09092712260261758
-3.64875,-0.002692804505292362,0.07953327167073337
-3.6475,-0.002023673305315264,0.05808602285777487
-3.64625,-0.001354542105338166,0.04133035972265105
-3.645,-0.001019976505349617,0.03060673531617179
-3.64375,0.0009874170945816775,-0.02401672650433189
-3.6425,0.002994810694512972,-0.08634779336699254
-3.64125,0.003329376294501521,-0.08802335968050491
-3.64,0.002660245094524423,-0.0638952047659266
-3.63875,0.001991113894547325,-0.04345329574107553
-3.6375,0.001656548294558776,-0.03138921828378637
-3.63625,0.0009874170945816775,-0.01764957451298483
-3.635,-0.001354542105338166,0.04501660561237829
-3.63375,-0.003027370105280911,0.08690576345018786
-3.6325,-0.003027370105280911,0.0862355369247829
-3.63125,-0.002358238905303813,0.06478828811182441
-3.63,-0.001689107705326715,0.04568683213778324
-3.62875,-0.001354542105338166,0.03395786794319656
-3.6275,-1.627970538396967e-05,-0.001899251165968435
-3.62625,0.002660245094524423,-0.07327837612159595
-3.625,0.003329376294501521,-0.09439051167185197
-3.62375,0.002660245094524423,-0.07160280980808356
-3.6225,0.001991113894547325,-0.04948533446972011
-3.62125,0.001656548294558776,-0.03474035091081114
-3.62,0.001321982694570227,-0.02703274586865418
-3.61875,-0.0003508453053725187,0.02155867722320493
-3.6175,-0.002692804505292362,0.07785770535722099
-3.61625,-0.00336193570526946,0.08992178281451015
-3.615,-0.002692804505292362,0.07182566662857641
-3.61375,-0.002023673305315264,0.05138375760372534
-3.6125,-0.001354542105338166,0.03730900057022132
-3.61125,-0.001019976505349617,0.01921288438428759
-3.61,0.001656548294558776,-0.04982044773242258
-3.60875,0.003329376294501521,-0.09506073819725692
-3.6075,0.002994810694512972,-0.08098598116375291
-3.60625,0.002325679494535874,-0.05719293951187707
-3.605,0.001656548294558776,-0.03943193658864581
-3.60375,0.001321982694570227,-0.02971365197027399
-3.6025,0.0003182858946045794,-0.001899251165968435
-3.60125,-0.002023673305315264,0.06344783506101449
-3.6,-0.00336193570526946,0.08958666955180768
-3.59875,-0.002692804505292362,0.07852793188262594
-3.5975,-0.002023673305315264,0.05641045654426249
-3.59625,-0.001689107705326715,0.03931968014643619
-3.595,-0.001019976505349617,0.02826094247725446
-3.59375,0.0009874170945816775,-0.02770297239405913
-3.5925,0.002994810694512972,-0.08936381273131483
-3.59125,0.003329376294501521,-0.08936381273131483
-3.59,0.002660245094524423,-0.06523565781673651
-3.58875,0.001991113894547325,-0.04445863552918296
-3.5875,0.001656548294558776,-0.03272967133459628
-3.58625,0.0009874170945816775,-0.01932514082649722
-3.585,-0.001354542105338166,0.0433410392988659
-3.58375,-0.003027370105280911,0.08556531039937795
-3.5825,-0.003027370105280911,0.08422485734856805
-3.58125,-0.002358238905303813,0.06244249527290707
-3.58,-0.001689107705326715,0.04367615256156838
-3.57875,-0.001354542105338166,0.03228230162968418
-3.5775,-1.627970538396967e-05,-0.002234364428670911
-3.57625,0.002660245094524423,-0.07327837612159595
-3.575,0.003329376294501521,-0.09539585145995941
-3.57375,0.002660245094524423,-0.07327837612159595
-3.5725,0.001991113894547325,-0.05149601404593497
-3.57125,0.001656548294558776,-0.03641591722432352
-3.57,0.001321982694570227,-0.02803808565676161
-3.56875,-0.0003508453053725187,0.02088845069779997
-3.5675,-0.002358238905303813,0.07651725230641108
-3.56625,-0.003027370105280911,0.08858132976370024
-3.565,-0.002692804505292362,0.06981498705236155
-3.56375,-0.002023673305315264,0.04870285150210553
-3.5625,-0.001354542105338166,0.03429298120589903
-3.56125,-0.0006854109053610678,0.01418618544375044
-3.56,0.001991113894547325,-0.05652271298647212
-3.55875,0.00366394189449007,-0.09908209734968665
-3.5575,0.002994810694512972,-0.08199132095186033
-3.55625,0.002325679494535874,-0.05752805277457955
-3.555,0.001656548294558776,-0.04010216311405077
-3.55375,0.001656548294558776,-0.03038387849567895
-3.5525,0.0006528514945931285,-0.001229024640563482
-3.55125,-0.002023673305315264,0.06378294832371698
-3.55,-0.003027370105280911,0.08992178281451015
-3.54875,-0.002692804505292362,0.07752259209451852
-3.5475,-0.002023673305315264,0.05574023001885754
-3.54625,-0.001354542105338166,0.03898456688373371
-3.545,-0.001019976505349617,0.02725560268914703
-3.54375,0.0009874170945816775,-0.03004876523297647
-3.5425,0.003329376294501521,-0.09170960557023215
-3.54125,0.003329376294501521,-0.0896989259940173
-3.54,0.002660245094524423,-0.06423031802862908
-3.53875,0.001991113894547325,-0.04378840900377801
-3.5375,0.001656548294558776,-0.03205944480919132
-3.53625,0.0009874170945816775,-0.01697934798757988
-3.535,-0.001354542105338166,0.04669217192589067
-3.53375,-0.003027370105280911,0.08690576345018786
-3.5325,-0.003027370105280911,0.08523019713667547
-3.53125,-0.002358238905303813,0.06411806158641944
-3.53,-0.001689107705326715,0.04568683213778324
-3.52875,-0.001354542105338166,0.03429298120589903
-3.5275,-1.627970538396967e-05,-0.001564137903265958
-3.52625,0.002660245094524423,-0.07227303633348851
-3.525,0.003329376294501521,-0.09338517188374454
-3.52375,0.002660245094524423,-0.07126769654538109
-3.5225,0.001991113894547325,-0.04847999468161268
-3.52125,0.001656548294558776,-0.03339989786000123
-3.52,0.001321982694570227,-0.02502206629243932
-3.51875,-0.0006854109053610678,0.02423958332482474
-3.5175,-0.002692804505292362,0.07852793188262594
-3.51625,-0.00336193570526946,0.08925155628910519
-3.515,-0.002692804505292362,0.07082032684046899
-3.51375,-0.002023673305315264,0.05037841781561792
-3.5125,-0.001354542105338166,0.0363036607821139
-3.51125,-0.0006854109053610678,0.0161968650199653
-3.51,0.001991113894547325,-0.05484714667295974
-3.50875,0.003329376294501521,-0.09640119124806683
-3.5075,0.002994810694512972,-0.07897530158753804
-3.50625,0.002325679494535874,-0.05484714667295974
-3.505,0.001656548294558776,-0.03742125701243095
-3.50375,0.001321982694570227,-0.02736785913135666
-3.5025,0.0003182858946045794,0.002792334511866237
-3.50125,-0.002023673305315264,0.06746919421344422
-3.5,-0.00336193570526946,0.09260268891612997
-3.49875,-0.002692804505292362,0.07986838493343586
-3.4975,-0.002023673305315264,0.05808602285777487
-3.49625,-0.001689107705326715,0.04099524645994856
-3.495,-0.001019976505349617,0.02893116900265941
-3.49375,0.0009874170945816775,-0.0310541050210839
-3.4925,0.003329376294501521,-0.0910393790448272
-3.49125,0.003329376294501521,-0.08735313315509996
-3.49,0.002325679494535874,-0.06288986497781918
-3.48875,0.001991113894547325,-0.04345329574107553
-3.4875,0.001656548294558776,-0.03205944480919132
-3.48625,0.0009874170945816775,-0.01697934798757988
-3.485,-0.001354542105338166,0.04669217192589067
-3.48375,-0.003027370105280911,0.08657065018748539
-3.4825,-0.003027370105280911,0.08455997061127052
-3.48125,-0.002358238905303813,0.06311272179831202
-3.48,-0.001689107705326715,0.04434637908697334
-3.47875,-0.001354542105338166,0.03261741489238665
-3.4775,-1.627970538396967e-05,-0.006925950106505584
-3.47625,0.002994810694512972,-0.07864018832483557
-3.475,0.00366394189449007,-0.09539585145995941
-3.47375,0.002660245094524423,-0.07227303633348851
-3.4725,0.001991113894547325,-0.04982044773242258
-3.47125,0.001656548294558776,-0.03507546417351361
-3.47,0.001321982694570227,-0.02636251934324923
-3.46875,-0.0003508453053725187,0.02423958332482474
-3.4675,-0.002692804505292362,0.07852793188262594
-3.46625,-0.003027370105280911,0.08958666955180768
-3.465,-0.002358238905303813,0.07015010031506402
-3.46375,-0.002023673305315264,0.04970819129021296
-3.4625,-0.001354542105338166,0.03563343425670894
-3.46125,-0.0006854109053610678,0.01586175175726282
-3.46,0.001656548294558776,-0.05350669362214983
-3.45875,0.003329376294501521,-0.09606607798536436
-3.4575,0.002994810694512972,-0.08031575463834796
-3.45625,0.002325679494535874,-0.05652271298647212
-3.455,0.001656548294558776,-0.03943193658864581
-3.45375,0.001321982694570227,-0.03071899175838142
-3.4525,0.0003182858946045794,0.0001114284102464246
-3.45125,-0.002023673305315264,0.06512340137452688
-3.45,-0.00336193570526946,0.08925155628910519
-3.44875,-0.002692804505292362,0.07651725230641108
-3.4475,-0.002358238905303813,0.05473489023075011
-3.44625,-0.001689107705326715,0.03831434035832876
-3.445,-0.001019976505349617,0.0262502629010396
-3.44375,0.0009874170945816775,-0.03339989786000123
-3.4425,0.003329376294501521,-0.09237983209563712
-3.44125,0.002994810694512972,-0.08802335968050491
-3.44,0.002325679494535874,-0.06322497824052165
-3.43875,0.001656548294558776,-0.04311818247837305
-3.4375,0.001321982694570227,-0.03172433154648885
-3.43625,0.0009874170945816775,-0.01597400819947245
-3.435,-0.001354542105338166,0.0476975117139981
-3.43375,-0.003027370105280911,0.08791110323829529
-3.4325,-0.003027370105280911,0.08523019713667547
-3.43125,-0.002358238905303813,0.06378294832371698
-3.43,-0.001689107705326715,0.04535171887508076
-3.42875,-0.001354542105338166,0.03362275468049408
-3.4275,-1.627970538396967e-05,-0.004245044004885771
-3.42625,0.002660245094524423,-0.07495394243510833
-3.425,0.003329376294501521,-0.09439051167185197
-3.42375,0.002660245094524423,-0.07160280980808356
-3.4225,0.001991113894547325,-0.04948533446972011
-3.42125,0.001656548294558776,-0.03507546417351361
-3.42,0.001321982694570227,-0.02636251934324923
-3.41875,-0.0006854109053610678,0.02457469658752721
-3.4175,-0.002692804505292362,0.07785770535722099
-3.41625,-0.003027370105280911,0.08824621650099776
-3.415,-0.002358238905303813,0.06813942073884917
-3.41375,-0.001689107705326715,0.04736239845129563
-3.4125,-0.001354542105338166,0.03362275468049408
-3.41125,-0.0006854109053610678,0.01184039260483311
-3.41,0.001991113894547325,-0.0595387323507944
-3.40875,0.00366394189449007,-0.09874698408698417
-3.4075,0.002994810694512972,-0.08065086790105043
-3.40625,0.002325679494535874,-0.05618759972376964
-3.405,0.001656548294558776,-0.03876171006324086
-3.40375,0.001321982694570227,-0.02971365197027399
-3.4025,0.0003182858946045794,0.002457221249163761
-3.40125,-0.002023673305315264,0.06646385442533678
-3.4,-0.00336193570526946,0.09159734912802253
-3.39875,-0.003027370105280911,0.07852793188262594
-3.3975,-0.002358238905303813,0.05741579633236992
-3.39625,-0.001689107705326715,0.04099524645994856
-3.395,-0.001354542105338166,0.02826094247725446
-3.39375,0.0009874170945816775,-0.03172433154648885
-3.3925,0.003329376294501521,-0.09070426578212473
-3.39125,0.003329376294501521,-0.08768824641780244
-3.39,0.002325679494535874,-0.06322497824052165
-3.38875,0.001991113894547325,-0.04345329574107553
-3.3875,0.001321982694570227,-0.03272967133459628
-3.38625,0.0009874170945816775,-0.01630912146217493
-3.385,-0.001354542105338166,0.0476975117139981
-3.38375,-0.003027370105280911,0.08590042366208044
-3.3825,-0.003027370105280911,0.0835546308231631
-3.38125,-0.002358238905303813,0.06311272179831202
-3.38,-0.001689107705326715,0.04535171887508076
-3.37875,-0.001354542105338166,0.03362275468049408
-3.3775,-1.627970538396967e-05,-0.005250383792993201
-3.37625,0.002660245094524423,-0.0752890556978108
-3.375,0.003329376294501521,-0.09372028514644702
-3.37375,0.002660245094524423,-0.07093258328267861
-3.3725,0.001991113894547325,-0.04915022120701763
-3.37125,0.001656548294558776,-0.03474035091081114
-3.37,0.001321982694570227,-0.02569229281784427
-3.36875,-0.0006854109053610678,0.02591514963833712
-3.3675,-0.002692804505292362,0.07919815840803089
-3.36625,-0.00336193570526946,0.08891644302640273
-3.365,-0.002358238905303813,0.06947987378965907
-3.36375,-0.001689107705326715,0.049037964764808
-3.3625,-0.001354542105338166,0.03529832099400647
-3.36125,-0.0006854109053610678,0.01418618544375044
-3.36,0.001991113894547325,-0.05618759972376964
-3.35875,0.003329376294501521,-0.09673630451076931
-3.3575,0.002994810694512972,-0.08031575463834796
-3.35625,0.002325679494535874,-0.05652271298647212
-3.355,0.001656548294558776,-0.03943193658864581
-3.35375,0.001321982694570227,-0.03071899175838142
-3.3525,0.0003182858946045794,0.001451881461056331
-3.35125,-0.002023673305315264,0.06579362789993183
-3.35,-0.003027370105280911,0.08891644302640273
-3.34875,-0.002692804505292362,0.07551191251830365
-3.3475,-0.002023673305315264,0.05372955044264268
-3.34625,-0.001354542105338166,0.03797922709562628
-3.345,-0.001019976505349617,0.02524492311293217
-3.34375,0.001321982694570227,-0.036751030487026
-3.3425,0.003329376294501521,-0.09472562493455444
-3.34125,0.002994810694512972,-0.08902869946861235
-3.34,0.002660245094524423,-0.06423031802862908
-3.33875,0.001991113894547325,-0.04445863552918296
-3.3375,0.001656548294558776,-0.03339989786000123
-3.33625,0.0009874170945816775,-0.01630912146217493
-3.335,-0.001354542105338166,0.04836773823940305
-3.33375,-0.003027370105280911,0.08657065018748539
-3.3325,-0.003027370105280911,0.0835546308231631
-3.33125,-0.002358238905303813,0.06177226874750211
-3.33,-0.001689107705326715,0.04267081277346095
-3.32875,-0.001354542105338166,0.03094184857887427
-3.3275,0.0003182858946045794,-0.01161753578434026
-3.32625,0.002994810694512972,-0.08266154747726528
-3.325,0.003329376294501521,-0.09606607798536436
-3.32375,0.002660245094524423,-0.07227303633348851
-3.3225,0.002325679494535874,-0.04982044773242258
-3.32125,0.001656548294558776,-0.03574569069891857
-3.32,0.001321982694570227,-0.02703274586865418
-3.31875,-0.0006854109053610678,0.0262502629010396
-3.3175,-0.002692804505292362,0.07852793188262594
-3.31625,-0.003027370105280911,0.08791110323829529
-3.315,-0.002358238905303813,0.06847453400155165
-3.31375,-0.001689107705326715,0.04803262497670058
-3.3125,-0.001354542105338166,0.03529832099400647
-3.31125,-0.0006854109053610678,0.01351595891834549
-3.31,0.001991113894547325,-0.05719293951187707
-3.30875,0.00366394189449007,-0.09673630451076931
-3.3075,0.002994810694512972,-0.07998064137564548
-3.30625,0.002325679494535874,-0.05652271298647212
-3.305,0.001991113894547325,-0.03976704985134829
-3.30375,0.001656548294558776,-0.03071899175838142
-3.3025,0.0003182858946045794,0.003127447774568714
-3.30125,-0.002023673305315264,0.06646385442533678
-3.3,-0.003027370105280911,0.08925155628910519
-3.29875,-0.002692804505292362,0.07551191251830365
-3.2975,-0.002023673305315264,0.0533944371799402
-3.29625,-0.001354542105338166,0.03730900057022132
-3.295,-0.001019976505349617,0.02457469658752721
-3.29375,0.001321982694570227,-0.03842659680053838
-3.2925,0.00366394189449007,-0.09539585145995941
-3.29125,0.003329376294501521,-0.08802335968050491
-3.29,0.002660245094524423,-0.06288986497781918
-3.28875,0.001991113894547325,-0.04345329574107553
-3.2875,0.001656548294558776,-0.03172433154648885
-3.28625,0.0009874170945816775,-0.01463355514866255
-3.285,-0.001354542105338166,0.05037841781561792
-3.28375,-0.003027370105280911,0.08824621650099776
-3.2825,-0.003027370105280911,0.08388974408586557
-3.28125,-0.002358238905303813,0.06244249527290707
-3.28,-0.001689107705326715,0.04401126582427085
-3.27875,-0.001354542105338166,0.03295252815508913
-3.2775,0.0003182858946045794,-0.007931289894613013
-3.27625,0.002994810694512972,-0.07729973527402567
-3.275,0.00366394189449007,-0.09338517188374454
-3.27375,0.002660245094524423,-0.07059747001997613
-3.2725,0.002325679494535874,-0.04847999468161268
-3.27125,0.001656548294558776,-0.03407012438540619
-3.27,0.001321982694570227,-0.02502206629243932
-3.26875,-0.0006854109053610678,0.02893116900265941
-3.2675,-0.002692804505292362,0.08087372472154328
-3.26625,-0.003027370105280911,0.08925155628910519
-3.265,-0.002358238905303813,0.0691447605269566
-3.26375,-0.001689107705326715,0.04870285150210553
-3.2625,-0.001354542105338166,0.03496320773130399
-3.26125,-0.0006854109053610678,0.01117016607942815
-3.26,0.002325679494535874,-0.06121429866430679
-3.25875,0.00366394189449007,-0.09807675756157921
-3.2575,0.002994810694512972,-0.07897530158753804
-3.25625,0.002325679494535874,-0.05484714667295974
-3.255,0.001656548294558776,-0.0380914835378359
-3.25375,0.001656548294558776,-0.02904342544486904
-3.2525,0.0003182858946045794,0.005138127350783573
-3.25125,-0.002023673305315264,0.0691447605269566
-3.25,-0.003027370105280911,0.09092712260261758
-3.24875,-0.002692804505292362,0.07718747883181604
-3.2475,-0.002023673305315264,0.05540511675615506
-3.24625,-0.001354542105338166,0.03965479340913866
-3.245,-0.001019976505349617,0.02725560268914703
-3.24375,0.001321982694570227,-0.03440523764810866
-3.2425,0.003329376294501521,-0.09137449230752968
-3.24125,0.003329376294501521,-0.08668290662969501
-3.24,0.002660245094524423,-0.06255475171511669
-3.23875,0.001991113894547325,-0.04278306921567058
-3.2375,0.001656548294558776,-0.03172433154648885
-3.23625,0.0009874170945816775,-0.01362821536055512
-3.235,-0.001354542105338166,0.05138375760372534
-3.23375,-0.003027370105280911,0.08757598997559281
-3.2325,-0.003027370105280911,0.08388974408586557
-3.23125,-0.002358238905303813,0.06177226874750211
-3.23,-0.001689107705326715,0.04367615256156838
-3.22875,-0.001354542105338166,0.03261741489238665
-3.2275,0.0003182858946045794,-0.009606856208125396
-3.22625,0.002994810694512972,-0.07830507506213309
-3.225,0.003329376294501521,-0.09305005862104207
-3.22375,0.002994810694512972,-0.06992724349457118
-3.2225,0.001991113894547325,-0.04814488141891021
-3.22125,0.001656548294558776,-0.03440523764810866
-3.22,0.001321982694570227,-0.02569229281784427
-3.21875,-0.0006854109053610678,0.02926628226536189
-3.2175,-0.002692804505292362,0.08020349819613833
-3.21625,-0.003027370105280911,0.08791110323829529
-3.215,-0.002358238905303813,0.06813942073884917
-3.21375,-0.001689107705326715,0.0476975117139981
-3.2125,-0.001354542105338166,0.03395786794319656
-3.21125,-0.0003508453053725187,0.009829713028618245
-3.21,0.002325679494535874,-0.06322497824052165
-3.20875,0.00366394189449007,-0.0984118708242817
-3.2075,0.002994810694512972,-0.07864018832483557
-3.20625,0.002325679494535874,-0.05518225993566221
-3.205,0.001656548294558776,-0.03842659680053838
-3.20375,0.001656548294558776,-0.02971365197027399
-3.2025,0.0003182858946045794,0.006143467138891003
-3.20125,-0.002023673305315264,0.06880964726425412
-3.2,-0.003027370105280911,0.0905920093399151
-3.19875,-0.002692804505292362,0.07584702578100613
-3.1975,-0.002023673305315264,0.05439977696804763
-3.19625,-0.001354542105338166,0.03831434035832876
-3.195,-0.001019976505349617,0.02558003637563465
-3.19375,0.001321982694570227,-0.036751030487026
-3.1925,0.003329376294501521,-0.09271494535833959
-3.19125,0.003329376294501521,-0.08567756684158757
-3.19,0.002325679494535874,-0.06121429866430679
-3.18875,0.001991113894547325,-0.04177772942756315
-3.1875,0.001321982694570227,-0.03071899175838142
-3.18625,0.0009874170945816775,-0.01228776230974521
-3.185,-0.001354542105338166,0.0533944371799402
-3.18375,-0.003027370105280911,0.08925155628910519
-3.1825,-0.003027370105280911,0.08388974408586557
-3.18125,-0.002358238905303813,0.06210738201020459
-3.18,-0.001689107705326715,0.04434637908697334
-3.17875,-0.001354542105338166,0.03295252815508913
-3.1775,0.0003182858946045794,-0.01228776230974521
-3.17625,0.002660245094524423,-0.08065086790105043
-3.175,0.003329376294501521,-0.09305005862104207
-3.17375,0.002660245094524423,-0.06892190370646376
-3.1725,0.001991113894547325,-0.04713954163080277
-3.17125,0.001656548294558776,-0.03306478459729876
-3.17,0.001321982694570227,-0.02368161324162941
-3.16875,-0.001019976505349617,0.03161207510427922
-3.1675,-0.003027370105280911,0.08288440429775815
-3.16625,-0.00336193570526946,0.08992178281451015
-3.165,-0.002692804505292362,0.06947987378965907
-3.16375,-0.002023673305315264,0.049037964764808
-3.1625,-0.001354542105338166,0.03496320773130399
-3.16125,-0.0003508453053725187,0.009159486503213292
-3.16,0.002325679494535874,-0.06423031802862908
-3.15875,0.00366394189449007,-0.09740653103617426
-3.1575,0.002994810694512972,-0.07729973527402567
-3.15625,0.002325679494535874,-0.05350669362214983
-3.155,0.001656548294558776,-0.036751030487026
-3.15375,0.001321982694570227,-0.02770297239405913
-3.1525,-1.627970538396967e-05,0.008824373240510816
-3.15125,-0.002358238905303813,0.07115544010317146
-3.15,-0.00336193570526946,0.09226757565342748
-3.14875,-0.002692804505292362,0.07718747883181604
-3.1475,-0.002023673305315264,0.05540511675615506
-3.14625,-0.001354542105338166,0.03965479340913866
-3.145,-0.001019976505349617,0.02524492311293217
-3.14375,0.001321982694570227,-0.03909682332594334
-3.1425,0.003329376294501521,-0.09439051167185197
-3.14125,0.002994810694512972,-0.08567756684158757
-3.14,0.002325679494535874,-0.06087918540160431
-3.13875,0.001656548294558776,-0.04144261616486067
-3.1375,0.001321982694570227,-0.03038387849567895
-3.13625,0.0006528514945931285,-0.01128242252163778
-3.135,-0.001689107705326715,0.05507000349345258
-3.13375,-0.00336193570526946,0.08992178281451015
-3.1325,-0.003027370105280911,0.08455997061127052
-3.13125,-0.002358238905303813,0.06210738201020459
-3.13,-0.001689107705326715,0.04434637908697334
-3.12875,-0.001354542105338166,0.03295252815508913
-3.1275,0.0003182858946045794,-0.01262287557244769
-3.12625,0.002660245094524423,-0.08065086790105043
-3.125,0.003329376294501521,-0.09237983209563712
-3.12375,0.002660245094524423,-0.06858679044376127
-3.1225,0.001991113894547325,-0.0468044283681003
-3.12125,0.001656548294558776,-0.03306478459729876
-3.12,0.001321982694570227,-0.02301138671622446
-3.11875,-0.0006854109053610678,0.03228230162968418
-3.1175,-0.002692804505292362,0.08321951756046062
-3.11625,-0.00336193570526946,0.08992178281451015
-3.115,-0.002692804505292362,0.06947987378965907
-3.11375,-0.002023673305315264,0.04970819129021296
-3.1125,-0.001354542105338166,0.0363036607821139
-3.11125,-0.0006854109053610678,0.01150527934213063
-3.11,0.001991113894547325,-0.0595387323507944
-3.10875,0.003329376294501521,-0.09539585145995941
-3.1075,0.002994810694512972,-0.07729973527402567
-3.10625,0.001991113894547325,-0.05384180688485231
-3.105,0.001656548294558776,-0.03742125701243095
-3.10375,0.001321982694570227,-0.02904342544486904
-3.1025,-1.627970538396967e-05,0.007819033452403385
-3.10125,-0.002358238905303813,0.07015010031506402
-3.1,-0.00336193570526946,0.0905920093399151
-3.09875,-0.002692804505292362,0.07517679925560118
-3.0975,-0.002023673305315264,0.0533944371799402
-3.09625,-0.001689107705326715,0.0376441138329238
-3.095,-0.001019976505349617,0.02323424353671731
-3.09375,0.001321982694570227,-0.04177772942756315
-3.0925,0.003329376294501521,-0.09606607798536436
-3.09125,0.002994810694512972,-0.08701801989239749
-3.09,0.002325679494535874,-0.06221963845241422
-3.08875,0.001991113894547325,-0.04345329574107553
-3.0875,0.001656548294558776,-0.03272967133459628
-3.08625,0.0009874170945816775,-0.01329310209785264
-3.085,-0.001689107705326715,0.05238909739183277
-3.08375,-0.003027370105280911,0.08724087671289034
-3.0825,-0.003027370105280911,0.08087372472154328
-3.08125,-0.002023673305315264,0.0590913626458823
-3.08,-0.001354542105338166,0.04099524645994856
-3.07875,-0.001019976505349617,0.02960139552806436
-3.0775,0.0006528514945931285,-0.01798468777568731
-3.07625,0.002994810694512972,-0.08668290662969501
-3.075,0.003329376294501521,-0.09539585145995941
-3.07375,0.002660245094524423,-0.06992724349457118
-3.0725,0.001991113894547325,-0.04847999468161268
-3.07125,0.001656548294558776,-0.03440523764810866
-3.07,0.001321982694570227,-0.02435183976703437
-3.06875,-0.0006854109053610678,0.0319471883669817
-3.0675,-0.002692804505292362,0.08154395124694823
-3.06625,-0.003027370105280911,0.08791110323829529
-3.065,-0.002358238905303813,0.06746919421344422
-3.06375,-0.001689107705326715,0.0476975117139981
-3.0625,-0.001354542105338166,0.03462809446860151
-3.06125,-0.0003508453053725187,0.009494599765915769
-3.06,0.002325679494535874,-0.06221963845241422
-3.05875,0.00366394189449007,-0.09673630451076931
-3.0575,0.002994810694512972,-0.07796996179943062
-3.05625,0.002325679494535874,-0.05484714667295974
-3.055,0.001991113894547325,-0.03876171006324086
-3.05375,0.001321982694570227,-0.03071899175838142
-3.0525,0.0003182858946045794,0.007483920189700909
-3.05125,-0.002023673305315264,0.06981498705236155
-3.05,-0.003027370105280911,0.08992178281451015
-3.04875,-0.002692804505292362,0.07417145946749375
-3.0475,-0.002023673305315264,0.05238909739183277
-3.04625,-0.001354542105338166,0.03663877404481637
-3.045,-0.0006854109053610678,0.02256401701131236
-3.04375,0.001656548294558776,-0.04110750290215819
-3.0425,0.00366394189449007,-0.09539585145995941
-3.04125,0.003329376294501521,-0.08668290662969501
-3.04,0.002660245094524423,-0.06221963845241422
-3.03875,0.001991113894547325,-0.04278306921567058
-3.0375,0.001656548294558776,-0.03205944480919132
-3.03625,0.0009874170945816775,-0.01195264904704273
-3.035,-0.001354542105338166,0.05406466370534516
-3.03375,-0.003027370105280911,0.08791110323829529
-3.0325,-0.002692804505292362,0.08187906450965071
-3.03125,-0.002023673305315264,0.06043181569669221
-3.03,-0.001354542105338166,0.04267081277346095
-3.02875,-0.001019976505349617,0.0319471883669817
-3.0275,0.0003182858946045794,-0.01496866841136502
-3.02625,0.002994810694512972,-0.08266154747726528
-3.025,0.00366394189449007,-0.09338517188374454
-3.02375,0.002994810694512972,-0.06959213023186871
-3.0225,0.002325679494535874,-0.04814488141891021
-3.02125,0.001656548294558776,-0.03440523764810866
-3.02,0.001321982694570227,-0.02368161324162941
-3.01875,-0.0006854109053610678,0.03362275468049408
-3.0175,-0.002692804505292362,0.08254929103505566
-3.01625,-0.003027370105280911,0.08891644302640273
-3.015,-0.002358238905303813,0.06847453400155165
-3.01375,-0.001689107705326715,0.04836773823940305
-3.0125,-0.001354542105338166,0.03596854751941142
-3.01125,-0.0003508453053725187,0.0104999395540232
-3.01,0.002325679494535874,-0.06054407213890184
-3.00875,0.00366394189449007,-0.09472562493455444
-3.0075,0.002994810694512972,-0.07629439548591824
-3.00625,0.002325679494535874,-0.05283646709674487
-3.005,0.001991113894547325,-0.03641591722432352
-3.00375,0.001656548294558776,-0.02803808565676161
-3.0025,-1.627970538396967e-05,0.01117016607942815
-3.00125,-0.002358238905303813,0.07283100641668384
-3,-0.003027370105280911,0.09159734912802253
-2.99875,-0.002692804505292362,0.07584702578100613
-2.9975,-0.002023673305315264,0.05473489023075011
-2.99625,-0.001354542105338166,0.03931968014643619
-2.995,-0.001019976505349617,0.02558003637563465
-2.99375,0.001321982694570227,-0.03742125701243095
-2.9925,0.003329376294501521,-0.0910393790448272
-2.99125,0.003329376294501521,-0.08299666073996777
-2.99,0.002660245094524423,-0.05886850582538945
-2.98875,0.001656548294558776,-0.04010216311405077
-2.9875,0.001321982694570227,-0.03004876523297647
-2.98625,0.0009874170945816775,-0.00927174294542292
-2.985,-0.001354542105338166,0.05674556980696497
-2.98375,-0.003027370105280911,0.08992178281451015
-2.9825,-0.003027370105280911,0.08288440429775815
-2.98125,-0.002023673305315264,0.06076692895939469
-2.98,-0.001354542105338166,0.04300592603616343
-2.97875,-0.001354542105338166,0.0319471883669817
-2.9775,0.0006528514945931285,-0.01764957451298483
-2.97625,0.003329376294501521,-0.08534245357888511
-2.975,0.00366394189449007,-0.09237983209563712
-2.97375,0.002994810694512972,-0.06858679044376127
-2.9725,0.001991113894547325,-0.04713954163080277
-2.97125,0.001656548294558776,-0.03339989786000123
-2.97,0.001321982694570227,-0.02301138671622446
-2.96875,-0.0006854109053610678,0.03529832099400647
-2.9675,-0.002692804505292362,0.0835546308231631
-2.96625,-0.003027370105280911,0.08791110323829529
-2.965,-0.002358238905303813,0.06713408095074173
-2.96375,-0.001689107705326715,0.04736239845129563
-2.9625,-0.001354542105338166,0.03429298120589903
-2.96125,-0.0003508453053725187,0.006143467138891003
-2.96,0.002325679494535874,-0.06724633739295137
-2.95875,0.003329376294501521,-0.09807675756157921
-2.9575,0.002994810694512972,-0.07729973527402567
-2.95625,0.002325679494535874,-0.05350669362214983
-2.955,0.001991113894547325,-0.03742125701243095
-2.95375,0.001656548294558776,-0.02937853870757151
-2.9525,-1.627970538396967e-05,0.01083505281672567
-2.95125,-0.002023673305315264,0.07115544010317146
-2.95,-0.003027370105280911,0.0905920093399151
-2.94875,-0.002692804505292362,0.07417145946749375
-2.9475,-0.002023673305315264,0.05305932391723772
-2.94625,-0.001354542105338166,0.03797922709562628
-2.945,-0.0006854109053610678,0.02356935679941979
-2.94375,0.001656548294558776,-0.04278306921567058
-2.9425,0.00366394189449007,-0.09606607798536436
-2.94125,0.003329376294501521,-0.08668290662969501
-2.94,0.002660245094524423,-0.06188452518971174
-2.93875,0.001991113894547325,-0.04311818247837305
-2.9375,0.001656548294558776,-0.03205944480919132
-2.93625,0.0009874170945816775,-0.01027708273353035
-2.935,-0.001689107705326715,0.05607534328156001
-2.93375,-0.002692804505292362,0.08791110323829529
-2.9325,-0.002692804505292362,0.08087372472154328
-2.93125,-0.002023673305315264,0.05842113612047735
-2.93,-0.001354542105338166,0.04066013319724609
-2.92875,-0.001019976505349617,0.03027162205346932
-2.9275,0.0006528514945931285,-0.01731446125028236
-2.92625,0.002994810694512972,-0.08433711379077767
-2.925,0.003329376294501521,-0.09237983209563712
-2.92375,0.002660245094524423,-0.06791656391835632
-2.9225,0.002325679494535874,-0.0468044283681003
-2.92125,0.001656548294558776,-0.03339989786000123
-2.92,0.001321982694570227,-0.02301138671622446
-2.91875,-0.001019976505349617,0.03563343425670894
-2.9175,-0.002692804505292362,0.08321951756046062
-2.91625,-0.003027370105280911,0.08757598997559281
-2.915,-0.002358238905303813,0.06646385442533678
-2.91375,-0.001689107705326715,0.04635705866318819
-2.9125,-0.001354542105338166,0.03328764141779161
-2.91125,-0.0003508453053725187,0.003797674299973667
-2.91,0.002660245094524423,-0.07026235675727366
-2.90875,0.00366394189449007,-0.09807675756157921
-2.9075,0.002994810694512972,-0.07629439548591824
-2.90625,0.002325679494535874,-0.05283646709674487
-2.905,0.001656548294558776,-0.036751030487026
-2.90375,0.001656548294558776,-0.02837319891946408
-2.9025,-1.627970538396967e-05,0.01251061913023806
-2.90125,-0.002023673305315264,0.07316611967938631
-2.9,-0.003027370105280911,0.09159734912802253
-2.89875,-0.002692804505292362,0.07551191251830365
-2.8975,-0.002023673305315264,0.05372955044264268
-2.89625,-0.001354542105338166,0.03831434035832876
-2.895,-0.001019976505349617,0.02256401701131236
-2.89375,0.001656548294558776,-0.04512886205458792
-2.8925,0.00366394189449007,-0.09640119124806683
-2.89125,0.003329376294501521,-0.08433711379077767
-2.89,0.002325679494535874,-0.0595387323507944
-2.88875,0.001991113894547325,-0.04010216311405077
-2.8875,0.001656548294558776,-0.02971365197027399
-2.88625,0.0006528514945931285,-0.007931289894613013
-2.885,-0.001689107705326715,0.05808602285777487
-2.88375,-0.003027370105280911,0.09025689607721263
-2.8825,-0.002692804505292362,0.08254929103505566
-2.88125,-0.002023673305315264,0.06110204222209716
-2.88,-0.001689107705326715,0.04267081277346095
-2.87875,-0.001354542105338166,0.0319471883669817
-2.8775,0.0006528514945931285,-0.01597400819947245
-2.87625,0.002994810694512972,-0.08266154747726528
-2.875,0.003329376294501521,-0.09170960557023215
-2.87375,0.002660245094524423,-0.0682516771810588
-2.8725,0.001991113894547325,-0.04713954163080277
-2.87125,0.001656548294558776,-0.03339989786000123
-2.87,0.001321982694570227,-0.0223411601908195
-2.86875,-0.001019976505349617,0.03697388730751885
-2.8675,-0.002692804505292362,0.08254929103505566
-2.86625,-0.003027370105280911,0.08690576345018786
-2.865,-0.002358238905303813,0.06612874116263431
-2.86375,-0.001689107705326715,0.04669217192589067
-2.8625,-0.001354542105338166,0.03362275468049408
-2.86125,-0.0003508453053725187,0.004803014088081097
-2.86,0.002325679494535874,-0.06724633739295137
-2.85875,0.00366394189449007,-0.09673630451076931
-2.8575,0.002994810694512972,-0.07595928222321575
-2.85625,0.002325679494535874,-0.05317158035944735
-2.855,0.001656548294558776,-0.03708614374972848
-2.85375,0.001656548294558776,-0.02870831218216656
-2.8525,-1.627970538396967e-05,0.01284573239294053
-2.85125,-0.002358238905303813,0.07283100641668384
-2.85,-0.003027370105280911,0.09025689607721263
-2.84875,-0.002692804505292362,0.07417145946749375
-2.8475,-0.002023673305315264,0.05272421065453525
-2.84625,-0.001354542105338166,0.0376441138329238
-2.845,-0.001019976505349617,0.02256401701131236
-2.84375,0.001321982694570227,-0.04345329574107553
-2.8425,0.003329376294501521,-0.09506073819725692
-2.84125,0.003329376294501521,-0.08500734031618262
-2.84,0.002660245094524423,-0.06121429866430679
-2.83875,0.001991113894547325,-0.04278306921567058
-2.8375,0.001656548294558776,-0.03205944480919132
-2.83625,0.0006528514945931285,-0.00927174294542292
-2.835,-0.001689107705326715,0.05741579633236992
-2.83375,-0.003027370105280911,0.08824621650099776
-2.8325,-0.003027370105280911,0.08053861145884081
-2.83125,-0.002023673305315264,0.05842113612047735
-2.83,-0.001354542105338166,0.04066013319724609
-2.82875,-0.001019976505349617,0.03027162205346932
-2.8275,0.0006528514945931285,-0.01999536735190217
-2.82625,0.002994810694512972,-0.08668290662969501
-2.825,0.003329376294501521,-0.09271494535833959
-2.82375,0.002660245094524423,-0.0682516771810588
-2.8225,0.001991113894547325,-0.04713954163080277
-2.82125,0.001656548294558776,-0.03373501112270371
-2.82,0.001321982694570227,-0.0223411601908195
-2.81875,-0.001019976505349617,0.03730900057022132
-2.8175,-0.002692804505292362,0.08388974408586557
-2.81625,-0.003027370105280911,0.08690576345018786
-2.815,-0.002358238905303813,0.06579362789993183
-2.81375,-0.001689107705326715,0.04669217192589067
-2.8125,-0.001354542105338166,0.03395786794319656
-2.81125,-1.627970538396967e-05,0.00446790082537862
-2.81,0.002325679494535874,-0.0682516771810588
-2.80875,0.00366394189449007,-0.09707141777347178
-2.8075,0.002994810694512972,-0.07629439548591824
-2.80625,0.002325679494535874,-0.05350669362214983
-2.805,0.001656548294558776,-0.03775637027513343
-2.80375,0.001656548294558776,-0.02937853870757151
-2.8025,-1.627970538396967e-05,0.01351595891834549
-2.80125,-0.002358238905303813,0.0735012329420888
-2.8,-0.003027370105280911,0.09092712260261758
-2.79875,-0.002692804505292362,0.07383634620479128
-2.7975,-0.002023673305315264,0.05305932391723772
-2.79625,-0.001689107705326715,0.03797922709562628
-2.795,-0.001019976505349617,0.02323424353671731
-2.79375,0.001656548294558776,-0.04278306921567058
-2.7925,0.003329376294501521,-0.09372028514644702
-2.79125,0.003329376294501521,-0.08366688726537272
-2.79,0.002325679494535874,-0.05920361908809193
-2.78875,0.001991113894547325,-0.04043727637675324
-2.7875,0.001656548294558776,-0.03038387849567895
-2.78625,0.0006528514945931285,-0.00726106336920806
-2.785,-0.001689107705326715,0.05942647590858478
-2.78375,-0.003027370105280911,0.09025689607721263
-2.7825,-0.002692804505292362,0.08154395124694823
-2.78125,-0.002023673305315264,0.06009670243398973
-2.78,-0.001689107705326715,0.04300592603616343
-2.77875,-0.001354542105338166,0.0319471883669817
-2.7775,0.0006528514945931285,-0.01865491430109226
-2.77625,0.002994810694512972,-0.08433711379077767
-2.775,0.003329376294501521,-0.09070426578212473
-2.77375,0.002660245094524423,-0.06724633739295137
-2.7725,0.001991113894547325,-0.04613420184269534
-2.77125,0.001656548294558776,-0.03272967133459628
-2.77,0.001321982694570227,-0.02066559387730712
-2.76875,-0.001019976505349617,0.03931968014643619
-2.7675,-0.002692804505292362,0.08556531039937795
-2.76625,-0.003027370105280911,0.08824621650099776
-2.765,-0.002358238905303813,0.06713408095074173
-2.76375,-0.001689107705326715,0.04736239845129563
-2.7625,-0.001354542105338166,0.03462809446860151
-2.76125,-1.627970538396967e-05,0.003797674299973667
-2.76,0.002660245094524423,-0.06992724349457118
-2.75875,0.00366394189449007,-0.09606607798536436
-2.7575,0.002994810694512972,-0.0739486026470009
-2.75625,0.002325679494535874,-0.05082578752053002
-2.755,0.001656548294558776,-0.03507546417351361
-2.75375,0.001656548294558776,-0.02703274586865418
-2.7525,-1.627970538396967e-05,0.0161968650199653
-2.75125,-0.002358238905303813,0.07551191251830365
-2.75,-0.003027370105280911,0.09226757565342748
-2.74875,-0.002692804505292362,0.0748416859928987
-2.7475,-0.001689107705326715,0.05406466370534516
-2.74625,-0.001354542105338166,0.03831434035832876
-2.745,-0.0006854109053610678,0.02155867722320493
-2.74375,0.001656548294558776,-0.04747465489350525
-2.7425,0.00366394189449007,-0.09606607798536436
-2.74125,0.003329376294501521,-0.08232643421456282
-2.74,0.002325679494535874,-0.05786316603728203
-2.73875,0.001991113894547325,-0.03943193658864581
-2.7375,0.001321982694570227,-0.02971365197027399
-2.73625,0.0006528514945931285,-0.005920610318398154
-2.735,-0.001689107705326715,0.06076692895939469
-2.73375,-0.003027370105280911,0.09092712260261758
-2.7325,-0.003027370105280911,0.08187906450965071
-2.73125,-0.002023673305315264,0.06043181569669221
-2.73,-0.001354542105338166,0.04267081277346095
-2.72875,-0.001354542105338166,0.0319471883669817
-2.7275,0.0006528514945931285,-0.01966025408919969
-2.72625,0.002994810694512972,-0.08467222705348015
-2.725,0.003329376294501521,-0.09003403925671978
-2.72375,0.002660245094524423,-0.06557077107943898
-2.7225,0.001991113894547325,-0.04546397531729039
-2.72125,0.001656548294558776,-0.03205944480919132
-2.72,0.001321982694570227,-0.01999536735190217
-2.71875,-0.001019976505349617,0.04032501993454361
-2.7175,-0.003027370105280911,0.08590042366208044
-2.71625,-0.003027370105280911,0.08757598997559281
-2.715,-0.002358238905303813,0.06713408095074173
-2.71375,-0.001689107705326715,0.04736239845129563
-2.7125,-0.001354542105338166,0.03462809446860151
-2.71125,-0.0003508453053725187,0.004803014088081097
-2.71,0.002325679494535874,-0.06724633739295137
-2.70875,0.003329376294501521,-0.09539585145995941
-2.7075,0.002994810694512972,-0.07461882917240585
-2.70625,0.002325679494535874,-0.05183112730863745
-2.705,0.001656548294558776,-0.03641591722432352
-2.70375,0.001321982694570227,-0.02837319891946408
-2.7025,-0.0003508453053725187,0.0161968650199653
-2.70125,-0.002358238905303813,0.07551191251830365
-2.7,-0.00336193570526946,0.09092712260261758
-2.69875,-0.002692804505292362,0.0735012329420888
-2.6975,-0.002023673305315264,0.05238909739183277
-2.69625,-0.001354542105338166,0.03697388730751885
-2.695,-0.001019976505349617,0.02088845069779997
-2.69375,0.001321982694570227,-0.04579908857999287
-2.6925,0.003329376294501521,-0.09439051167185197
-2.69125,0.002994810694512972,-0.08299666073996777
-2.69,0.002325679494535874,-0.05886850582538945
-2.68875,0.001656548294558776,-0.04043727637675324
-2.6875,0.001321982694570227,-0.0310541050210839
-2.68625,0.0006528514945931285,-0.006590836843803107
-2.685,-0.002023673305315264,0.05942647590858478
-2.68375,-0.003027370105280911,0.08891644302640273
-2.6825,-0.003027370105280911,0.07919815840803089
-2.68125,-0.002358238905303813,0.0577509095950724
-2.68,-0.001689107705326715,0.04066013319724609
-2.67875,-0.001354542105338166,0.02993650879076684
-2.6775,0.0006528514945931285,-0.02133582040271208
-2.67625,0.002994810694512972,-0.08601268010429006
-2.675,0.003329376294501521,-0.09137449230752968
-2.67375,0.002660245094524423,-0.06758145065565384
-2.6725,0.001991113894547325,-0.04713954163080277
-2.67125,0.001656548294558776,-0.03373501112270371
-2.67,0.0009874170945816775,-0.02167093366541455
-2.66875,-0.001019976505349617,0.03931968014643619
-2.6675,-0.003027370105280911,0.084895083873973
-2.66625,-0.003027370105280911,0.08556531039937795
-2.665,-0.002358238905303813,0.06512340137452688
-2.66375,-0.001689107705326715,0.04568683213778324
-2.6625,-0.001354542105338166,0.03328764141779161
-2.66125,-0.0003508453053725187,0.002792334511866237
-2.66,0.002325679494535874,-0.06858679044376127
-2.65875,0.003329376294501521,-0.09606607798536436
-2.6575,0.002994810694512972,-0.07562416896051329
-2.65625,0.002325679494535874,-0.05283646709674487
-2.655,0.001656548294558776,-0.03775637027513343
-2.65375,0.001321982694570227,-0.02971365197027399
-2.6525,-1.627970538396967e-05,0.01586175175726282
-2.65125,-0.002358238905303813,0.07417145946749375
-2.65,-0.003027370105280911,0.08925155628910519
-2.64875,-0.002358238905303813,0.07149055336587394
-2.6475,-0.001689107705326715,0.05037841781561792
-2.64625,-0.001354542105338166,0.03563343425670894
-2.645,-0.0006854109053610678,0.01988311090969254
-2.64375,0.001656548294558776,-0.04747465489350525
-2.6425,0.003329376294501521,-0.09606607798536436
-2.64125,0.003329376294501521,-0.0840020005280752
-2.64,0.002325679494535874,-0.05987384561349688
-2.63875,0.001656548294558776,-0.04144261616486067
-2.6375,0.001656548294558776,-0.03172433154648885
-2.63625,0.0006528514945931285,-0.006590836843803107
-2.635,-0.002023673305315264,0.05976158917128726
-2.63375,-0.003027370105280911,0.08891644302640273
-2.6325,-0.002692804505292362,0.07919815840803089
-2.63125,-0.002023673305315264,0.05708068306966745
-2.63,-0.001354542105338166,0.03998990667184114
-2.62875,-0.001019976505349617,0.02893116900265941
-2.6275,0.0006528514945931285,-0.02602740608054675
-2.62625,0.003329376294501521,-0.09003403925671978
-2.625,0.003329376294501521,-0.0910393790448272
-2.62375,0.002660245094524423,-0.06557077107943898
-2.6225,0.001991113894547325,-0.04479374879188544
-2.62125,0.001656548294558776,-0.03205944480919132
-2.62,0.0009874170945816775,-0.01932514082649722
-2.61875,-0.001019976505349617,0.04233569951075847
-2.6175,-0.002692804505292362,0.08590042366208044
-2.61625,-0.003027370105280911,0.08757598997559281
-2.615,-0.002358238905303813,0.06579362789993183
-2.61375,-0.001689107705326715,0.04635705866318819
-2.6125,-0.001354542105338166,0.03395786794319656
-2.61125,-1.627970538396967e-05,-0.000223684852456052
-2.61,0.002660245094524423,-0.07294326285889347
-2.60875,0.003329376294501521,-0.09539585145995941
-2.6075,0.002660245094524423,-0.07361348938429842
-2.60625,0.001991113894547325,-0.05049067425782754
-2.605,0.001656548294558776,-0.03474035091081114
-2.60375,0.001321982694570227,-0.02636251934324923
-2.6025,-0.0003508453053725187,0.01988311090969254
-2.60125,-0.002358238905303813,0.07785770535722099
-2.6,-0.003027370105280911,0.09226757565342748
-2.59875,-0.002692804505292362,0.07383634620479128
-2.5975,-0.002023673305315264,0.05238909739183277
-2.59625,-0.001354542105338166,0.03730900057022132
-2.595,-0.0006854109053610678,0.01988311090969254
-2.59375,0.001656548294558776,-0.05049067425782754
-2.5925,0.003329376294501521,-0.09673630451076931
-2.59125,0.002994810694512972,-0.08199132095186033
-2.59,0.002325679494535874,-0.05752805277457955
-2.58875,0.001656548294558776,-0.03976704985134829
-2.5875,0.001321982694570227,-0.03038387849567895
-2.58625,0.0006528514945931285,-0.003574817479480818
-2.585,-0.002023673305315264,0.06210738201020459
-2.58375,-0.003027370105280911,0.08992178281451015
-2.5825,-0.003027370105280911,0.08020349819613833
-2.58125,-0.002358238905303813,0.05808602285777487
-2.58,-0.001689107705326715,0.04133035972265105
-2.57875,-0.001354542105338166,0.02993650879076684
-2.5775,0.0006528514945931285,-0.02368161324162941
-2.57625,0.002994810694512972,-0.08634779336699254
-2.575,0.003329376294501521,-0.09003403925671978
-2.57375,0.002660245094524423,-0.06590588434214147
-2.5725,0.001991113894547325,-0.04546397531729039
-2.57125,0.001656548294558776,-0.03272967133459628
-2.57,0.0009874170945816775,-0.01999536735190217
-2.56875,-0.001019976505349617,0.04166547298535352
-2.5675,-0.003027370105280911,0.084895083873973
-2.56625,-0.003027370105280911,0.08523019713667547
-2.565,-0.002358238905303813,0.06411806158641944
-2.56375,-0.001689107705326715,0.04501660561237829
-2.5625,-0.001354542105338166,0.03295252815508913
-2.56125,-0.0003508453053725187,0.0007816549356513777
-2.56,0.002325679494535874,-0.07126769654538109
-2.55875,0.003329376294501521,-0.09640119124806683
-2.5575,0.002660245094524423,-0.0752890556978108
-2.55625,0.002325679494535874,-0.0525013538340424
-2.555,0.001656548294558776,-0.03708614374972848
-2.55375,0.001321982694570227,-0.02904342544486904
-2.5525,-0.0003508453053725187,0.01787243133347768
-2.55125,-0.002358238905303813,0.0748416859928987
-2.55,-0.00336193570526946,0.08891644302640273
-2.54875,-0.002692804505292362,0.07048521357776651
-2.5475,-0.002023673305315264,0.049037964764808
-2.54625,-0.001354542105338166,0.03462809446860151
-2.545,-0.0006854109053610678,0.01586175175726282
-2.54375,0.001656548294558776,-0.05384180688485231
-2.5425,0.003329376294501521,-0.09908209734968665
-2.54125,0.002994810694512972,-0.08366688726537272
-2.54,0.002325679494535874,-0.05886850582538945
-2.53875,0.001656548294558776,-0.04077238963945572
-2.5375,0.001656548294558776,-0.0310541050210839
-2.53625,0.0003182858946045794,-0.004580157267588247
-2.535,-0.002023673305315264,0.06143715548479964
-2.53375,-0.00336193570526946,0.08858132976370024
-2.5325,-0.003027370105280911,0.07752259209451852
-2.53125,-0.002023673305315264,0.05574023001885754
-2.53,-0.001689107705326715,0.03831434035832876
-2.52875,-0.001354542105338166,0.02725560268914703
-2.5275,0.0006528514945931285,-0.02904342544486904
-2.52625,0.003329376294501521,-0.09170960557023215
-2.525,0.003329376294501521,-0.09070426578212473
-2.52375,0.002660245094524423,-0.06624099760484393
-2.5225,0.001991113894547325,-0.04546397531729039
-2.52125,0.001321982694570227,-0.03272967133459628
-2.52,0.0009874170945816775,-0.01899002756379474
-2.51875,-0.001354542105338166,0.04267081277346095
-2.5175,-0.003027370105280911,0.08556531039937795
-2.51625,-0.003027370105280911,0.08556531039937795
-2.515,-0.002358238905303813,0.06478828811182441
-2.51375,-0.001689107705326715,0.04535171887508076
-2.5125,-0.001354542105338166,0.03261741489238665
-2.51125,-1.627970538396967e-05,-0.000223684852456052
-2.51,0.002660245094524423,-0.07160280980808356
-2.50875,0.003329376294501521,-0.09539585145995941
-2.5075,0.002660245094524423,-0.07327837612159595
-2.50625,0.001991113894547325,-0.05116090078323249
-2.505,0.001656548294558776,-0.03541057743621609
-2.50375,0.001321982694570227,-0.02736785913135666
-2.5025,-0.0003508453053725187,0.01988311090969254
-2.50125,-0.002692804505292362,0.07651725230641108
-2.5,-0.00336193570526946,0.08992178281451015
-2.49875,-0.002692804505292362,0.07115544010317146
-2.4975,-0.002023673305315264,0.04970819129021296
-2.49625,-0.001354542105338166,0.03529832099400647
-2.495,-0.0006854109053610678,0.01686709154537025
-2.49375,0.001656548294558776,-0.05384180688485231
-2.4925,0.00366394189449007,-0.09807675756157921
-2.49125,0.002994810694512972,-0.08132109442645538
-2.49,0.002325679494535874,-0.05752805277457955
-2.48875,0.001656548294558776,-0.03943193658864581
-2.4875,0.001321982694570227,-0.03004876523297647
-2.48625,0.0003182858946045794,-0.002569477691373388
-2.485,-0.002023673305315264,0.06344783506101449
-2.48375,-0.003027370105280911,0.08992178281451015
-2.4825,-0.003027370105280911,0.07919815840803089
-2.48125,-0.002023673305315264,0.05808602285777487
-2.48,-0.001689107705326715,0.04099524645994856
-2.47875,-0.001354542105338166,0.02993650879076684
-2.4775,0.0009874170945816775,-0.02502206629243932
-2.47625,0.002994810694512972,-0.08735313315509996
-2.475,0.003329376294501521,-0.08936381273131483
-2.47375,0.002660245094524423,-0.06523565781673651
-2.4725,0.001991113894547325,-0.04512886205458792
-2.47125,0.001656548294558776,-0.03272967133459628
-2.47,0.0009874170945816775,-0.01899002756379474
-2.46875,-0.001354542105338166,0.04401126582427085
-2.4675,-0.003027370105280911,0.08556531039937795
-2.46625,-0.003027370105280911,0.08523019713667547
-2.465,-0.002358238905303813,0.06378294832371698
-2.46375,-0.001689107705326715,0.04501660561237829
-2.4625,-0.001354542105338166,0.03261741489238665
-2.46125,-1.627970538396967e-05,-0.003239704216778341
-2.46,0.002660245094524423,-0.07495394243510833
-2.45875,0.003329376294501521,-0.09573096472266188
-2.4575,0.002994810694512972,-0.07294326285889347
-2.45625,0.002325679494535874,-0.05082578752053002
-2.455,0.001656548294558776,-0.03541057743621609
-2.45375,0.001321982694570227,-0.02736785913135666
-2.4525,-0.0003508453053725187,0.02122356396050245
-2.45125,-0.002358238905303813,0.07752259209451852
-2.45,-0.003027370105280911,0.09025689607721263
-2.44875,-0.002692804505292362,0.07249589315398136
-2.4475,-0.002023673305315264,0.05104864434102287
-2.44625,-0.001354542105338166,0.0363036607821139
-2.445,-0.0006854109053610678,0.01787243133347768
-2.44375,0.001656548294558776,-0.05216624057133992
-2.4425,0.00366394189449007,-0.09673630451076931
-2.44125,0.002994810694512972,-0.08098598116375291
-2.44,0.002325679494535874,-0.05719293951187707
-2.43875,0.001656548294558776,-0.03943193658864581
-2.4375,0.001656548294558776,-0.03004876523297647
-2.43625,0.0003182858946045794,-0.001564137903265958
-2.435,-0.002023673305315264,0.06378294832371698
-2.43375,-0.00336193570526946,0.09025689607721263
-2.4325,-0.003027370105280911,0.07886304514532842
-2.43125,-0.002023673305315264,0.05708068306966745
-2.43,-0.001689107705326715,0.04066013319724609
-2.42875,-0.001354542105338166,0.02960139552806436
-2.4275,0.0006528514945931285,-0.02602740608054675
-2.42625,0.002994810694512972,-0.08768824641780244
-2.425,0.003329376294501521,-0.08902869946861235
-2.42375,0.002660245094524423,-0.06490054455403403
-2.4225,0.001991113894547325,-0.04479374879188544
-2.42125,0.001656548294558776,-0.03272967133459628
-2.42,0.0009874170945816775,-0.01798468777568731
-2.41875,-0.001019976505349617,0.04434637908697334
-2.4175,-0.002692804505292362,0.0862355369247829
-2.41625,-0.003027370105280911,0.08556531039937795
-2.415,-0.002358238905303813,0.06478828811182441
-2.41375,-0.001689107705326715,0.04535171887508076
-2.4125,-0.001354542105338166,0.03362275468049408
-2.41125,-1.627970538396967e-05,-0.001899251165968435
-2.41,0.002660245094524423,-0.07361348938429842
-2.40875,0.003329376294501521,-0.09539585145995941
-2.4075,0.002994810694512972,-0.07327837612159595
-2.40625,0.001991113894547325,-0.05049067425782754
-2.405,0.001656548294558776,-0.03507546417351361
-2.40375,0.001321982694570227,-0.02703274586865418
-2.4025,-0.0003508453053725187,0.02256401701131236
-2.40125,-0.002692804505292362,0.07819281861992347
-2.4,-0.00336193570526946,0.0905920093399151
-2.39875,-0.002692804505292362,0.07149055336587394
-2.3975,-0.002023673305315264,0.05071353107832039
-2.39625,-0.001354542105338166,0.0363036607821139
-2.395,-0.001019976505349617,0.01787243133347768
-2.39375,0.001656548294558776,-0.05082578752053002
-2.3925,0.003329376294501521,-0.09506073819725692
-2.39125,0.002994810694512972,-0.08065086790105043
-2.39,0.002325679494535874,-0.05719293951187707
-2.38875,0.001656548294558776,-0.03976704985134829
-2.3875,0.001321982694570227,-0.03004876523297647
-2.38625,0.0003182858946045794,-0.0008939113778610051
-2.385,-0.002023673305315264,0.06445317484912193
-2.38375,-0.00336193570526946,0.08958666955180768
-2.3825,-0.003027370105280911,0.07819281861992347
-2.38125,-0.002358238905303813,0.05708068306966745
-2.38,-0.001689107705326715,0.04032501993454361
-2.37875,-0.001019976505349617,0.02859605573995693
-2.3775,0.0009874170945816775,-0.02770297239405913
-2.37625,0.003329376294501521,-0.08869358620590986
-2.375,0.003329376294501521,-0.08902869946861235
-2.37375,0.002660245094524423,-0.06523565781673651
-2.3725,0.001991113894547325,-0.04512886205458792
-2.37125,0.001656548294558776,-0.03306478459729876
-2.37,0.0009874170945816775,-0.01899002756379474
-2.36875,-0.001354542105338166,0.04468149234967581
-2.3675,-0.003027370105280911,0.08523019713667547
-2.36625,-0.003027370105280911,0.08388974408586557
-2.365,-0.002358238905303813,0.06210738201020459
-2.36375,-0.001689107705326715,0.04300592603616343
-2.3625,-0.001354542105338166,0.03161207510427922
-2.36125,-1.627970538396967e-05,-0.005250383792993201
-2.36,0.002660245094524423,-0.07629439548591824
-2.35875,0.003329376294501521,-0.09573096472266188
-2.3575,0.002660245094524423,-0.07294326285889347
-2.35625,0.001991113894547325,-0.05015556099512506
-2.355,0.001656548294558776,-0.03574569069891857
-2.35375,0.001321982694570227,-0.02770297239405913
-2.3525,-0.0003508453053725187,0.02289913027401483
-2.35125,-0.002692804505292362,0.07752259209451852
-2.35,-0.003027370105280911,0.08925155628910519
-2.34875,-0.002692804505292362,0.06981498705236155
-2.3475,-0.001689107705326715,0.04870285150210553
-2.34625,-0.001354542105338166,0.03462809446860151
-2.345,-0.0006854109053610678,0.01385107218104796
-2.34375,0.001991113894547325,-0.05786316603728203
-2.3425,0.00366394189449007,-0.09874698408698417
-2.34125,0.002994810694512972,-0.08031575463834796
-2.34,0.002325679494535874,-0.05585248646106716
-2.33875,0.001656548294558776,-0.03876171006324086
-2.3375,0.001656548294558776,-0.02971365197027399
-2.33625,0.0003182858946045794,0.0004465416729489012
-2.335,-0.002023673305315264,0.06579362789993183
-2.33375,-0.00336193570526946,0.09126223586532005
-2.3325,-0.002692804505292362,0.07919815840803089
-2.33125,-0.002023673305315264,0.05741579633236992
-2.33,-0.001689107705326715,0.04032501993454361
-2.32875,-0.001354542105338166,0.02826094247725446
-2.3275,0.0009874170945816775,-0.02837319891946408
-2.32625,0.002994810694512972,-0.08835847294320739
-2.325,0.003329376294501521,-0.08735313315509996
-2.32375,0.002660245094524423,-0.06356009150322413
-2.3225,0.001991113894547325,-0.04345329574107553
-2.32125,0.001656548294558776,-0.03138921828378637
-2.32,0.0009874170945816775,-0.01664423472487741
-2.31875,-0.001354542105338166,0.04635705866318819
-2.3175,-0.003027370105280911,0.08690576345018786
-2.31625,-0.003027370105280911,0.08455997061127052
-2.315,-0.002358238905303813,0.06378294832371698
-2.31375,-0.001689107705326715,0.04468149234967581
-2.3125,-0.001354542105338166,0.03261741489238665
-2.31125,-1.627970538396967e-05,-0.003574817479480818
-2.31,0.002660245094524423,-0.0739486026470009
-2.30875,0.003329376294501521,-0.09506073819725692
-2.3075,0.002660245094524423,-0.072608149596191
-2.30625,0.001991113894547325,-0.04982044773242258
-2.305,0.001656548294558776,-0.03507546417351361
-2.30375,0.001321982694570227,-0.0266976326059517
-2.3025,-0.0003508453053725187,0.02323424353671731
-2.30125,-0.002358238905303813,0.07819281861992347
-2.3,-0.003027370105280911,0.08891644302640273
-2.29875,-0.002358238905303813,0.06947987378965907
-2.2975,-0.001689107705326715,0.04803262497670058
-2.29625,-0.001354542105338166,0.03462809446860151
-2.295,-0.0006854109053610678,0.01385107218104796
-2.29375,0.001991113894547325,-0.05786316603728203
-2.2925,0.00366394189449007,-0.09774164429887673
-2.29125,0.002994810694512972,-0.08065086790105043
-2.29,0.002325679494535874,-0.05618759972376964
-2.28875,0.001656548294558776,-0.03909682332594334
-2.2875,0.001656548294558776,-0.03004876523297647
-2.28625,0.0003182858946045794,0.0004465416729489012
-2.285,-0.002023673305315264,0.06545851463722936
-2.28375,-0.003027370105280911,0.08925155628910519
-2.2825,-0.002692804505292362,0.07685236556911357
-2.28125,-0.002023673305315264,0.05540511675615506
-2.28,-0.001354542105338166,0.03864945362103123
-2.27875,-0.001019976505349617,0.02558003637563465
-2.2775,0.0009874170945816775,-0.03440523764810866
-2.27625,0.003329376294501521,-0.09372028514644702
-2.275,0.003329376294501521,-0.0896989259940173
-2.27375,0.002660245094524423,-0.06423031802862908
-2.2725,0.001991113894547325,-0.04378840900377801
-2.27125,0.001656548294558776,-0.03205944480919132
-2.27,0.001321982694570227,-0.01630912146217493
-2.26875,-0.001354542105338166,0.0476975117139981
-2.2675,-0.003027370105280911,0.08724087671289034
-2.26625,-0.003027370105280911,0.084895083873973
-2.265,-0.002358238905303813,0.06344783506101449
-2.26375,-0.001689107705326715,0.04501660561237829
-2.2625,-0.001354542105338166,0.03328764141779161
-2.26125,-1.627970538396967e-05,-0.003574817479480818
-2.26,0.002660245094524423,-0.07461882917240585
-2.25875,0.003329376294501521,-0.09405539840914949
-2.2575,0.002994810694512972,-0.07160280980808356
-2.25625,0.001991113894547325,-0.04915022120701763
-2.255,0.001656548294558776,-0.03474035091081114
-2.25375,0.001321982694570227,-0.02636251934324923
-2.2525,-0.0003508453053725187,0.02558003637563465
-2.25125,-0.002358238905303813,0.07852793188262594
-2.25,-0.003027370105280911,0.08992178281451015
-2.24875,-0.002358238905303813,0.07082032684046899
-2.2475,-0.001689107705326715,0.05037841781561792
-2.24625,-0.001354542105338166,0.03663877404481637
-2.245,-0.0006854109053610678,0.01586175175726282
-2.24375,0.001991113894547325,-0.05451203341025726
-2.2425,0.003329376294501521,-0.09606607798536436
-2.24125,0.002994810694512972,-0.08031575463834796
-2.24,0.002325679494535874,-0.05652271298647212
-2.23875,0.001656548294558776,-0.03943193658864581
-2.2375,0.001656548294558776,-0.03004876523297647
-2.23625,0.0003182858946045794,0.001786994723758807
-2.235,-0.002023673305315264,0.06646385442533678
-2.23375,-0.003027370105280911,0.0905920093399151
-2.2325,-0.002692804505292362,0.07785770535722099
-2.23125,-0.002023673305315264,0.05607534328156001
-2.23,-0.001354542105338166,0.03998990667184114
-2.22875,-0.001019976505349617,0.02792582921455198
-2.2275,0.0009874170945816775,-0.03004876523297647
-2.22625,0.003329376294501521,-0.08936381273131483
-2.225,0.003329376294501521,-0.08802335968050491
-2.22375,0.002660245094524423,-0.0638952047659266
-2.2225,0.001991113894547325,-0.04412352226648048
-2.22125,0.001656548294558776,-0.03272967133459628
-2.22,0.0009874170945816775,-0.01664423472487741
-2.21875,-0.001354542105338166,0.04736239845129563
-2.2175,-0.003027370105280911,0.08757598997559281
-2.21625,-0.003027370105280911,0.08422485734856805
-2.215,-0.002358238905303813,0.06244249527290707
-2.21375,-0.001689107705326715,0.04367615256156838
-2.2125,-0.001354542105338166,0.03261741489238665
-2.21125,-1.627970538396967e-05,-0.005920610318398154
-2.21,0.002660245094524423,-0.07562416896051329
-2.20875,0.00366394189449007,-0.09472562493455444
-2.2075,0.002660245094524423,-0.07126769654538109
-2.20625,0.001991113894547325,-0.04915022120701763
-2.205,0.001656548294558776,-0.03507546417351361
-2.20375,0.001321982694570227,-0.0266976326059517
-2.2025,-0.0003508453053725187,0.02524492311293217
-2.20125,-0.002358238905303813,0.07886304514532842
-2.2,-0.003027370105280911,0.08791110323829529
-2.19875,-0.002358238905303813,0.0691447605269566
-2.1975,-0.001689107705326715,0.04836773823940305
