#Digilent WaveForms Oscilloscope Acquisition
#Device Name: Discovery
#Serial Number: SN:210244566833
#Date Time: 2019-07-15 10:41:40.856
#Sample rate: 800Hz
#Samples: 8192
#Trigger: Source: Channel 1 Type: Edge Condition: Rising Level: 0 V Hyst.: Auto HoldOff: 0 s
#Channel 1: Range: 500 mV/div Offset: 0 V Attenuation: 1 X
#Channel 2: Range: 200 mV/div Offset: 0 V Attenuation: 1 X
#Power Supplies: ON
#Positive Supply: ON
#Negative Supply: ON

Time (s),Channel 1 (V),Channel 2 (V)
-5.12,-0.003027370105280911,0.09092712260261758
-5.11875,-0.003361935705269308,0.08958666955180829
-5.1175,-0.002692804505292362,0.06713408095074173
-5.11625,-0.001689107705326715,0.04702728518859314
-5.115,-0.001354542105338166,0.03362275468049408
-5.11375,-1.627970538275253e-05,-0.0005587981151925119
-5.1125,0.002660245094524423,-0.0752890556978108
-5.11125,0.00366394189449007,-0.0997523238750916
-5.11,0.002994810694513276,-0.07696462201133356
-5.10875,0.002325679494535569,-0.05350669362214251
-5.1075,0.001656548294558776,-0.03742125701243095
-5.10625,0.001321982694570227,-0.02837319891946408
-5.105,-0.0003508453053717581,0.02189379048588454
-5.10375,-0.002692804505292362,0.08154395124694823
-5.1025,-0.00336193570526946,0.0949484817550473
-5.10125,-0.002692804505292362,0.07551191251830365
-5.1,-0.00202367330531496,0.05305932391723041
-5.09875,-0.001354542105338166,0.03697388730751885
-5.0975,-0.0006854109053610678,0.01820754459618016
-5.09625,0.001656548294557711,-0.05250135383401024
-5.095,0.00366394189449007,-0.1000874371377941
-5.09375,0.002994810694512972,-0.08601268010429006
-5.0925,0.002325679494535874,-0.06020895887619936
-5.09125,0.001656548294558776,-0.04110750290215331
-5.09,0.001656548294558776,-0.03038387849567895
-5.08875,0.0003182858946045794,-0.001564137903265958
-5.0875,-0.002023673305314199,0.06746919421341283
-5.08625,-0.00336193570526946,0.09561870828045226
-5.085,-0.003027370105280911,0.08388974408586557
-5.08375,-0.002358238905303813,0.06043181569669221
-5.0825,-0.001689107705326563,0.04200058624805051
-5.08125,-0.001354542105338166,0.02993650879076684
-5.08,0.0009874170945816775,-0.02736785913135666
-5.07875,0.003329376294500456,-0.09271494535830987
-5.0775,0.003329376294501217,-0.0940553984091379
-5.07625,0.002660245094524423,-0.06858679044376127
-5.075,0.001991113894547325,-0.04713954163080277
-5.07375,0.001656548294558928,-0.03373501112270981
-5.0725,0.0009874170945816775,-0.01932514082649722
-5.07125,-0.001354542105338166,0.04635705866318819
-5.07,-0.003027370105280911,0.09092712260261758
-5.06875,-0.003027370105280607,0.09025689607720165
-5.0675,-0.002358238905303813,0.06612874116263431
-5.06625,-0.001689107705326715,0.04602194540048572
-5.065,-0.001354542105338318,0.0332876414177974
-5.06375,-0.0003508453053725187,-0.001229024640563482
-5.0625,0.002660245094524423,-0.07595928222321575
-5.06125,0.00366394189449007,-0.0997523238750916
-5.06,0.002994810694512516,-0.07629439548590741
-5.05875,0.001991113894547325,-0.0525013538340424
-5.0575,0.001656548294558776,-0.036751030487026
-5.05625,0.001321982694570379,-0.02837319891946789
-5.055,-0.0003508453053725187,0.02256401701131236
-5.05375,-0.002692804505292362,0.08187906450965071
-5.0525,-0.00336193570526946,0.09461336849234482
-5.05125,-0.002692804505292058,0.07517679925559127
-5.05,-0.002023673305315264,0.0533944371799402
-5.04875,-0.001354542105338166,0.03797922709562628
-5.0475,-0.001019976505349769,0.01854265785889148
-5.04625,0.001656548294559689,-0.05317158035946884
-5.045,0.00366394189449007,-0.1004225504004966
-5.04375,0.003329376294501521,-0.08534245357888511
-5.0425,0.00232567949453633,-0.06087918540161544
-5.04125,0.001656548294558776,-0.04177772942756315
-5.04,0.001321982694570227,-0.03071899175838142
-5.03875,0.0003182858946045794,-0.001899251165968435
-5.0375,-0.002023673305315873,0.06646385442534943
-5.03625,-0.00336193570526946,0.09427825522964234
-5.035,-0.003027370105280911,0.08221417777235318
-5.03375,-0.002358238905304118,0.05909136264589282
-5.0325,-0.001689107705326715,0.04066013319724609
-5.03125,-0.001019976505349617,0.02893116900265941
-5.03,0.0009874170945816775,-0.02770297239405913
-5.02875,0.003329376294501521,-0.09271494535834035
-5.0275,0.003329376294501521,-0.09439051167185197
-5.02625,0.002660245094524423,-0.06892190370646376
-5.025,0.001991113894547629,-0.047474654893515
-5.02375,0.001656548294558776,-0.03474035091081114
-5.0225,0.001321982694570227,-0.02066559387730712
-5.02125,-0.001354542105338166,0.04501660561237829
-5.02,-0.003027370105280911,0.08992178281450938
-5.01875,-0.003027370105280911,0.08824621650099776
-5.0175,-0.002358238905303813,0.06512340137452688
-5.01625,-0.001689107705327019,0.04501660561238743
-5.015,-0.001354542105337557,0.03228230162966818
-5.01375,-1.627970538396967e-05,-0.002904590954075865
-5.0125,0.002660245094524423,-0.07763484853672814
-5.01125,0.003663941894489614,-0.1007576636631885
-5.01,0.002994810694512972,-0.07796996179943062
-5.00875,0.002325679494535874,-0.05484714667295974
-5.0075,0.001656548294558776,-0.03876171006324086
-5.00625,0.001321982694569466,-0.0300487652329533
-5.005,-0.0003508453053725187,0.02088845069779997
-5.00375,-0.002692804505292362,0.07986838493343586
-5.0025,-0.003361935705269156,0.09193246239071953
-5.00125,-0.002692804505292362,0.07216077989127889
-5,-0.002023673305315264,0.05004330455291543
-4.99875,-0.001354542105338166,0.03429298120589903
-4.9975,-0.0006854109053598507,0.01485641196912293
-4.99625,0.001991113894547325,-0.05652271298647212
-4.995,0.00366394189449007,-0.1020981167140089
-4.99375,0.003329376294501673,-0.08668290662970202
-4.9925,0.002660245094524423,-0.06188452518971174
-4.99125,0.001991113894547325,-0.04345329574107553
-4.99,0.001656548294558776,-0.03272967133459628
-4.98875,0.0006528514945919113,-0.00390993074215175
-4.9875,-0.002023673305315264,0.06545851463722936
-4.98625,-0.00336193570526946,0.09293780217883243
-4.985,-0.003027370105281064,0.08087372472154876
-4.98375,-0.002023673305315112,0.05775090959506432
-4.9825,-0.001689107705326715,0.03998990667184114
-4.98125,-0.001354542105338166,0.02826094247725446
-4.98,0.0009874170945806124,-0.02837319891943833
-4.97875,0.003329376294501521,-0.09372028514644702
-4.9775,0.00366394189449007,-0.09539585145995941
-4.97625,0.002994810694512972,-0.06992724349457118
-4.975,0.001991113894547173,-0.04814488141890411
-4.97375,0.001656548294558776,-0.03474035091081114
-4.9725,0.001321982694570227,-0.01999536735190217
-4.97125,-0.001354542105336949,0.04568683213775337
-4.97,-0.003027370105280911,0.08992178281451015
-4.96875,-0.003027370105280911,0.08858132976370024
-4.9675,-0.002358238905303813,0.06545851463722936
-4.96625,-0.001689107705326411,0.04501660561237234
-4.965,-0.001019976505349617,0.0319471883669817
-4.96375,-1.627970538396967e-05,-0.003574817479480818
-4.9625,0.002660245094523206,-0.07763484853669446
-4.96125,0.00366394189449007,-0.1004225504004966
-4.96,0.002994810694512972,-0.07662950874862071
-4.95875,0.002325679494535874,-0.05350669362214983
-4.9575,0.001656548294558776,-0.03775637027512931
-4.95625,0.001656548294558776,-0.02870831218216656
-4.955,-0.0003508453053725187,0.0218937904859074
-4.95375,-0.002692804505291297,0.08087372472151647
-4.9525,-0.003027370105280759,0.09327291544152592
-4.95125,-0.002692804505292362,0.0735012329420888
-4.95,-0.001689107705326715,0.05171887086642782
-4.94875,-0.001354542105338318,0.03596854751941858
-4.9475,-0.0006854109053610678,0.01552663849456035
-4.94625,0.001991113894547325,-0.05719293951187707
-4.945,0.00366394189449007,-0.1027683432394139
-4.94375,0.003329376294501217,-0.08668290662968312
-4.9425,0.002660245094524423,-0.06054407213890184
-4.94125,0.001991113894547325,-0.04144261616486067
-4.94,0.001656548294558928,-0.0307189917583863
-4.93875,0.0006528514945931285,-0.001229024640563482
-4.9375,-0.002023673305315264,0.0678043074761467
-4.93625,-0.003027370105280911,0.0949484817550473
-4.935,-0.002692804505292058,0.08254929103504514
-4.93375,-0.002023673305315264,0.05942647590858478
-4.9325,-0.001354542105338166,0.04133035972265105
-4.93125,-0.001019976505349769,0.02926628226536737
-4.93,0.0009874170945816775,-0.02937853870757151
-4.92875,0.003329376294501521,-0.09271494535833959
-4.9275,0.00366394189449007,-0.09271494535833959
-4.92625,0.002994810694512516,-0.06624099760483418
-4.925,0.001991113894547325,-0.04479374879188544
-4.92375,0.001656548294558776,-0.03172433154648885
-4.9225,0.001321982694570379,-0.01697934798758659
-4.92125,-0.00101997650535053,0.04836773823942317
-4.92,-0.003027370105280911,0.09260268891612997
-4.91875,-0.003027370105280911,0.09092712260261758
-4.9175,-0.002358238905304118,0.06847453400156187
-4.91625,-0.001689107705326715,0.04803262497670058
-4.915,-0.001354542105338166,0.03529832099400647
-4.91375,-1.627970538396967e-05,-0.002234364428670911
-4.9125,0.002660245094524879,-0.07796996179944038
-4.91125,0.00366394189449007,-0.09941721061238912
-4.91,0.002994810694512972,-0.07461882917240585
-4.90875,0.002325679494536178,-0.05082578752054084
-4.9075,0.001656548294558776,-0.03541057743621609
-4.90625,0.001321982694570227,-0.02602740608054675
-4.905,-0.0003508453053725187,0.02524492311293217
-4.90375,-0.002692804505292667,0.08388974408587105
-4.9025,-0.00336193570526946,0.09595382154315472
-4.90125,-0.002692804505292362,0.07584702578100613
-4.9,-0.002023673305315569,0.05372955044265273
-4.89875,-0.001354542105338166,0.03831434035832876
-4.8975,-0.0006854109053610678,0.01854265785888264
-4.89625,0.001991113894547325,-0.05350669362214983
-4.895,0.003663941894489766,-0.09841187082427423
-4.89375,0.002994810694512972,-0.08199132095186033
-4.8925,0.002325679494535874,-0.05685782624917459
-4.89125,0.00165654829455908,-0.03876171006324909
-4.89,0.00132198269456977,-0.02837319891945052
-4.88875,0.0003182858946045794,0.001451881461056331
-4.8875,-0.002023673305315264,0.06947987378965907
-4.88625,-0.003361935705268852,0.09595382154314269
-4.885,-0.003027370105280911,0.08321951756046062
-4.88375,-0.002023673305315264,0.05976158917128726
-4.8825,-0.001689107705326715,0.042000586248056
-4.88125,-0.001354542105337101,0.02926628226533415
-4.88,0.0009874170945816775,-0.03172433154648885
-4.87875,0.003329376294501521,-0.09506073819725692
-4.8775,0.003329376294501521,-0.09070426578212672
-4.87625,0.002660245094524423,-0.06523565781673651
-4.875,0.001991113894547325,-0.04412352226648048
-4.87375,0.001656548294558776,-0.03138921828378637
-4.8725,0.0009874170945806126,-0.01630912146214491
-4.87125,-0.001354542105338166,0.04970819129021296
-4.87,-0.003027370105280911,0.09327291544153492
-4.86875,-0.003361935705269308,0.09059200933991632
-4.8675,-0.002358238905303813,0.06746919421344422
-4.86625,-0.001689107705326715,0.0476975117139981
-4.865,-0.001354542105338166,0.03496320773130399
-4.86375,-1.627970538275253e-05,-0.00122902464059716
-4.8625,0.002660245094524423,-0.0752890556978108
-4.86125,0.003329376294501521,-0.09740653103617426
-4.86,0.002660245094524727,-0.07361348938430924
-4.85875,0.001991113894547173,-0.05049067425782053
-4.8575,0.001656548294558776,-0.03507546417351361
-4.85625,0.001321982694570227,-0.0266976326059517
-4.855,-0.0006854109053601549,0.0245746965875039
-4.85375,-0.002692804505292362,0.08221417777235318
-4.8525,-0.00336193570526946,0.09461336849234482
-4.85125,-0.002692804505292362,0.07450657273019623
-4.85,-0.002023673305315112,0.05238909739182561
-4.84875,-0.001689107705326715,0.03663877404481637
-4.8475,-0.0006854109053610678,0.01552663849456035
-4.84625,0.001991113894546107,-0.05752805277454633
-4.845,0.00366394189449007,-0.1017630034513065
-4.84375,0.003329376294501521,-0.08467222705348015
-4.8425,0.002325679494535874,-0.06020895887619936
-4.84125,0.001991113894547173,-0.04177772942755873
-4.84,0.001656548294558776,-0.03205944480919132
-4.83875,0.0003182858946045794,-0.001899251165968435
-4.8375,-0.002023673305314199,0.06713408095071034
-4.83625,-0.00336193570526946,0.09327291544153492
-4.835,-0.003027370105280911,0.08053861145884081
-4.83375,-0.002358238905303813,0.05808602285777487
-4.8325,-0.001354542105338166,0.04032501993453812
-4.83125,-0.001354542105338166,0.02826094247725446
-4.83,0.0009874170945816775,-0.03038387849567895
-4.82875,0.003329376294500456,-0.09506073819722752
-4.8275,0.003329376294501217,-0.09405539840913806
-4.82625,0.002660245094524423,-0.06892190370646376
-4.825,0.001991113894547325,-0.04780976815620773
-4.82375,0.001656548294558928,-0.03541057743622172
-4.8225,0.0009874170945816775,-0.01999536735190217
-4.82125,-0.001354542105338166,0.04702728518859314
-4.82,-0.003027370105280911,0.08958666955180768
-4.81875,-0.003027370105280607,0.08791110323828508
-4.8175,-0.002358238905303813,0.06545851463722936
-4.81625,-0.001689107705326715,0.04535171887508076
-4.815,-0.001354542105338318,0.03261741489239245
-4.81375,-1.627970538396967e-05,-0.004580157267588247
-4.8125,0.002660245094524423,-0.07897530158753804
-4.81125,0.00366394189449007,-0.1000874371377941
-4.81,0.002994810694512668,-0.0772997352740153
-4.80875,0.002325679494535874,-0.05451203341025726
-4.8075,0.001991113894547325,-0.03976704985134829
-4.80625,0.001656548294558928,-0.03038387849568321
-4.805,-0.0003508453053725187,0.02289913027401483
-4.80375,-0.002692804505292362,0.08053861145884081
-4.8025,-0.00336193570526946,0.09260268891612997
-4.80125,-0.002692804505292058,0.07249589315397115
-4.8,-0.002023673305315264,0.05004330455291543
-4.79875,-0.001354542105338166,0.03462809446860151
-4.7975,-0.0006854109053613721,0.01351595891835509
-4.79625,0.001991113894548238,-0.059873845613517
-4.795,0.00399850749447862,-0.1041087962902238
-4.79375,0.003329376294501521,-0.08567756684158757
-4.7925,0.002660245094524727,-0.06121429866431791
-4.79125,0.001991113894547325,-0.0424479559529681
-4.79,0.001656548294558776,-0.0323945580718938
-4.78875,0.0006528514945931285,-0.0008939113778610051
-4.7875,-0.00202367330531572,0.06679896768805116
-4.78625,-0.003027370105280911,0.09293780217883243
-4.785,-0.002692804505292362,0.08053861145884081
-4.78375,-0.002023673305315569,0.05775090959508276
-4.7825,-0.001354542105338166,0.03965479340913866
-4.78125,-0.001019976505349617,0.0275907159518495
-4.78,0.0009874170945816775,-0.0310541050210839
-4.77875,0.003329376294501673,-0.09506073819725662
-4.7775,0.00366394189449007,-0.09439051167185197
-4.77625,0.002660245094524423,-0.06925701696916622
-4.775,0.002325679494536026,-0.04780976815621749
-4.77375,0.001656548294558776,-0.03507546417351361
-4.7725,0.001321982694570227,-0.01932514082649722
-4.77125,-0.001354542105338166,0.04736239845129563
-4.77,-0.003027370105280911,0.09025689607721156
-4.76875,-0.003027370105280911,0.08791110323829529
-4.7675,-0.002358238905303813,0.06478828811182441
-4.76625,-0.001689107705327019,0.04468149234968495
-4.765,-0.001019976505349008,0.03127696184155891
-4.76375,0.0003182858946045794,-0.007931289894613013
-4.7625,0.002994810694512972,-0.08333177400267025
-4.76125,0.003998507494478163,-0.1010927769258934
-4.76,0.002994810694512972,-0.07595928222321575
-4.75875,0.002325679494535874,-0.0525013538340424
-4.7575,0.001991113894547325,-0.03708614374972848
-4.75625,0.001656548294557863,-0.02803808565673722
-4.755,-0.0003508453053725187,0.02558003637563465
-4.75375,-0.002692804505292362,0.0835546308231631
-4.7525,-0.003361935705269156,0.0946133684923398
-4.75125,-0.002358238905303813,0.07517679925560118
-4.75,-0.001689107705326715,0.05372955044264268
-4.74875,-0.001354542105338166,0.03797922709562628
-4.7475,-0.0006854109053598507,0.01820754459614739
-4.74625,0.001991113894547325,-0.05384180688485231
-4.745,0.00366394189449007,-0.09941721061238912
-4.74375,0.003329376294501673,-0.08333177400267756
-4.7425,0.002325679494535874,-0.0581982792999845
-4.74125,0.001991113894547325,-0.04010216311405077
-4.74,0.001656548294558776,-0.03038387849567895
-4.73875,0.0003182858946035144,0.000111428410277665
-4.7375,-0.002023673305315264,0.06880964726425412
-4.73625,-0.003027370105280911,0.09528359501774977
-4.735,-0.003027370105280911,0.08254929103506145
-4.73375,-0.00202367330531496,0.05976158917127918
-4.7325,-0.001354542105338166,0.042000586248056
-4.73125,-0.001019976505349617,0.02926628226536189
-4.73,0.0009874170945807646,-0.02971365197024717
-4.72875,0.003329376294501521,-0.09338517188374454
-4.7275,0.00366394189449007,-0.09170960557023215
-4.72625,0.002660245094524423,-0.06590588434214147
-4.725,0.001991113894547173,-0.04479374879187965
-4.72375,0.001656548294558776,-0.03205944480919132
-4.7225,0.001321982694570227,-0.01664423472487741
-4.72125,-0.001354542105336949,0.05004330455288511
-4.72,-0.003027370105280911,0.09193246239072501
-4.71875,-0.003027370105280911,0.08958666955180768
-4.7175,-0.002358238905303813,0.06679896768803927
-4.71625,-0.001689107705326563,0.04635705866318255
-4.715,-0.001354542105338166,0.03395786794319656
-4.71375,-1.627970538396967e-05,-0.003909930742183295
-4.7125,0.002994810694511603,-0.07796996179939694
-4.71125,0.00366394189449007,-0.09807675756157921
-4.71,0.002994810694512972,-0.07361348938429842
-4.70875,0.002325679494535874,-0.05082578752053002
-4.7075,0.001656548294558623,-0.03541057743621228
-4.70625,0.001321982694570227,-0.02703274586865418
-4.705,-0.0003508453053725187,0.02591514963833712
-4.70375,-0.002692804505291297,0.0835546308231369
-4.7025,-0.003361935705269156,0.09494848175503801
-4.70125,-0.002692804505292362,0.07450657273019623
-4.7,-0.002023673305315264,0.05272421065453525
-4.69875,-0.00135454210533847,0.03697388730752601
-4.6975,-0.0006854109053610678,0.01452129870645292
-4.69625,0.001991113894547325,-0.05987384561349688
-4.695,0.00366394189449007,-0.101427890188604
-4.69375,0.003329376294501065,-0.08232643421455138
-4.6925,0.002325679494535874,-0.05719293951187707
-4.69125,0.001656548294558776,-0.03909682332594334
-4.69,0.001321982694570379,-0.02904342544487361
-4.68875,0.0003182858946045794,0.002792334511866237
-4.6875,-0.002023673305315264,0.07048521357776651
-4.68625,-0.00336193570526946,0.09595382154315472
-4.685,-0.003027370105280607,0.0825492910350456
-4.68375,-0.002358238905303813,0.06043181569669221
-4.6825,-0.001689107705326715,0.04233569951075847
-4.68125,-0.001354542105338318,0.02993650879077248
-4.68,0.0009874170945816775,-0.02937853870757151
-4.67875,0.003329376294501521,-0.09271494535833959
-4.6775,0.003329376294501521,-0.09170960557023215
-4.67625,0.002660245094524118,-0.06724633739294161
-4.675,0.001991113894547325,-0.04579908857999287
-4.67375,0.001656548294558776,-0.03339989786000123
-4.6725,0.000987417094581982,-0.01831980103839664
-4.67125,-0.001354542105338927,0.04937307802752968
-4.67,-0.003027370105280911,0.09159734912802253
-4.66875,-0.003027370105280911,0.08858132976370024
-4.6675,-0.002358238905304118,0.0657936278999422
-4.66625,-0.001689107705326715,0.04602194540048572
-4.665,-0.001354542105338166,0.03295252815508913
-4.66375,-1.627970538396967e-05,-0.005250383792993201
-4.6625,0.002994810694513276,-0.07931041485024967
-4.66125,0.00366394189449007,-0.09941721061238912
-4.66,0.002994810694512972,-0.07562416896051329
-4.65875,0.002325679494536178,-0.05250135383405291
-4.6575,0.001656548294558776,-0.03742125701243095
-4.65625,0.001321982694570227,-0.02870831218216656
-4.655,-0.0003508453053725187,0.02490980985022969
-4.65375,-0.002692804505292667,0.08187906450965574
-4.6525,-0.00336193570526946,0.09293780217883243
-4.65125,-0.002692804505292362,0.07216077989127889
-4.65,-0.001689107705327171,0.05037841781562782
-4.64875,-0.001354542105338166,0.03529832099400647
-4.6475,-0.0006854109053610678,0.01318084565564301
-4.64625,0.002325679494535874,-0.06020895887619936
-4.645,0.003663941894489918,-0.1031034565021083
-4.64375,0.003329376294501521,-0.08534245357888511
-4.6425,0.002660245094524423,-0.06054407213890184
-4.64125,0.001991113894547629,-0.04244795595297633
-4.64,0.001656548294558319,-0.03306478459728383
-4.63875,0.0006528514945931285,-0.000223684852456052
-4.6375,-0.002023673305315264,0.0678043074761467
-4.63625,-0.003361935705268852,0.09327291544152333
-4.635,-0.002692804505292362,0.08020349819613833
-4.63375,-0.002023673305315264,0.05674556980696497
-4.6325,-0.001354542105338166,0.03898456688373371
-4.63125,-0.001019976505348552,0.02591514963830969
-4.63,0.001321982694570227,-0.03440523764810866
-4.62875,0.00366394189449007,-0.09740653103617426
-4.6275,0.00366394189449007,-0.0937202851464487
-4.62625,0.002660245094524423,-0.0682516771810588
-4.625,0.001991113894547325,-0.04713954163080277
-4.62375,0.001656548294558776,-0.03474035091081114
-4.6225,0.001321982694569009,-0.01899002756376411
-4.62125,-0.001354542105338166,0.04836773823940305
-4.62,-0.003027370105280911,0.0905920093399151
-4.61875,-0.003027370105280911,0.08690576345018954
-4.6175,-0.002358238905303813,0.06344783506101449
-4.61625,-0.001689107705326715,0.04367615256156838
-4.615,-0.001019976505349617,0.0319471883669817
-4.61375,0.0003182858946057965,-0.008266403157349625
-4.6125,0.002994810694512972,-0.08333177400267025
-4.61125,0.00399850749447862,-0.1010927769259015
-4.61,0.002994810694513428,-0.07629439548592951
-4.60875,0.002325679494535722,-0.05317158035944049
-4.6075,0.001991113894547325,-0.0380914835378359
-4.60625,0.001656548294558776,-0.02904342544486904
-4.605,-0.0003508453053716058,0.0255800363756098
-4.60375,-0.002358238905303813,0.08187906450965071
-4.6025,-0.00336193570526946,0.09293780217883243
-4.60125,-0.002358238905303813,0.07283100641668384
-4.6,-0.001689107705326563,0.05138375760371849
-4.59875,-0.001354542105338166,0.0363036607821139
-4.5975,-0.0006854109053610678,0.01485641196915539
-4.59625,0.002325679494534505,-0.05819827929995128
-4.595,0.00399850749447862,-0.1017630034513065
-4.59375,0.003329376294501521,-0.08433711379077767
-4.5925,0.002660245094524423,-0.05920361908809193
-4.59125,0.001991113894547173,-0.04110750290215347
-4.59,0.001656548294558776,-0.03071899175838142
-4.58875,0.0006528514945931285,0.001116768198353854
-4.5875,-0.002023673305314047,0.06981498705233032
-4.58625,-0.003027370105280911,0.0949484817550473
-4.585,-0.002692804505292362,0.08154395124694823
-4.58375,-0.002023673305315264,0.05875624938317982
-4.5825,-0.001354542105338014,0.04099524645994308
-4.58125,-0.001019976505349617,0.02893116900265941
-4.58,0.001321982694570227,-0.03172433154648885
-4.57875,0.003663941894489005,-0.09439051167182348
-4.5775,0.003663941894489614,-0.09170960557022041
-4.57625,0.002660245094524423,-0.06590588434214147
-4.575,0.001991113894547325,-0.04546397531729039
-4.57375,0.001656548294558928,-0.03339989786000672
-4.5725,0.001321982694570227,-0.01764957451298483
-4.57125,-0.001354542105338166,0.05004330455291543
-4.57,-0.003027370105280911,0.09159734912802253
-4.56875,-0.003027370105280607,0.08925155628909437
-4.5675,-0.002358238905303813,0.06545851463722936
-4.56625,-0.001354542105338166,0.04535171887508076
-4.565,-0.001019976505349769,0.03295252815509477
-4.56375,0.0003182858946045794,-0.00726106336920806
-4.5625,0.002994810694512972,-0.08098598116375291
-4.56125,0.00399850749447862,-0.0984118708242817
-4.56,0.002994810694512668,-0.0736134893842879
-4.55875,0.002325679494535874,-0.05049067425782754
-4.5575,0.001991113894547325,-0.03541057743621609
-4.55625,0.001656548294558928,-0.02669763260595566
-4.555,-0.0003508453053725187,0.02792582921455198
-4.55375,-0.002692804505292362,0.08422485734856805
-4.5525,-0.00336193570526946,0.0949484817550473
-4.55125,-0.002358238905303509,0.07383634620478152
-4.55,-0.001689107705326715,0.05238909739183277
-4.54875,-0.001354542105338166,0.03596854751941142
-4.5475,-0.0003508453053729752,0.0135159589183557
-4.54625,0.002325679494536635,-0.06188452518973033
-4.545,0.00399850749447862,-0.1027683432394139
-4.54375,0.003329376294501521,-0.08266154747726528
-4.5425,0.00232567949453633,-0.05752805277459098
-4.54125,0.001991113894547325,-0.04043727637675324
-4.54,0.001656548294558776,-0.03038387849567895
-4.53875,0.0003182858946045794,0.002792334511866237
-4.5375,-0.00202367330531572,0.07115544010318274
-4.53625,-0.003027370105280911,0.09595382154315472
-4.535,-0.002692804505292362,0.08221417777235318
-4.53375,-0.002023673305315569,0.05942647590859514
-4.5325,-0.001354542105338166,0.042000586248056
-4.53125,-0.001019976505349617,0.02926628226536189
-4.53,0.0009874170945816775,-0.0310541050210839
-4.52875,0.003329376294501673,-0.09405539840914812
-4.5275,0.00366394189449007,-0.0910393790448272
-4.52625,0.002660245094524423,-0.06557077107943898
-4.525,0.001991113894547629,-0.04445863552919256
-4.52375,0.001656548294558776,-0.03205944480919132
-4.5225,0.0009874170945816775,-0.01563889493676997
-4.52125,-0.001354542105338166,0.05205398412913029
-4.52,-0.003027370105280911,0.09360802870423571
-4.51875,-0.003027370105280911,0.08992178281451015
-4.5175,-0.002358238905303813,0.06713408095074173
-4.51625,-0.001689107705327019,0.04736239845130462
-4.515,-0.001354542105337405,0.03496320773128631
-4.51375,0.0003182858946045794,-0.003909930742183295
-4.5125,0.002994810694512972,-0.07830507506213309
-4.51125,0.003663941894489766,-0.09807675756157022
-4.51,0.002994810694512972,-0.07361348938429842
-4.50875,0.002325679494535874,-0.05049067425782754
-4.5075,0.001656548294558776,-0.03608080396162105
-4.50625,0.001321982694569314,-0.02703274586862919
-4.505,-0.0006854109053610678,0.02792582921455198
-4.50375,-0.002692804505292362,0.084895083873973
-4.5025,-0.003361935705269156,0.09494848175504274
-4.50125,-0.002692804505292362,0.07417145946749375
-4.5,-0.002023673305315264,0.05238909739183277
-4.49875,-0.001354542105338166,0.0363036607821139
-4.4975,-0.0006854109053596986,0.01385107218101444
-4.49625,0.002325679494535874,-0.05987384561349688
-4.495,0.00366394189449007,-0.101427890188604
-4.49375,0.003329376294501673,-0.08299666073997615
-4.4925,0.002660245094524423,-0.0581982792999845
-4.49125,0.001991113894547325,-0.04010216311405077
-4.49,0.001656548294558776,-0.02971365197027399
-4.48875,0.0003182858946033623,0.003797674300004297
-4.4875,-0.002358238905303813,0.07115544010317146
-4.48625,-0.00336193570526946,0.09561870828045226
-4.485,-0.003027370105281064,0.08187906450965696
-4.48375,-0.002023673305315112,0.05875624938317175
-4.4825,-0.001689107705326715,0.04099524645994856
-4.48125,-0.001019976505349617,0.02826094247725446
-4.48,0.001321982694569161,-0.03272967133456854
-4.47875,0.00366394189449007,-0.09506073819725692
-4.4775,0.00366394189449007,-0.09170960557023215
-4.47625,0.002660245094524423,-0.06590588434214147
-4.475,0.001991113894547173,-0.0454639753172849
-4.47375,0.001656548294558776,-0.03339989786000123
-4.4725,0.0009874170945816775,-0.01664423472487741
-4.47125,-0.001354542105337101,0.05037841781558744
-4.47,-0.003027370105280911,0.09293780217883243
-4.46875,-0.003027370105280911,0.08925155628910519
-4.4675,-0.002358238905303813,0.06612874116263431
-4.46625,-0.001689107705326563,0.04635705866318224
-4.465,-0.001354542105338166,0.03328764141779161
-4.46375,0.0003182858946045794,-0.008266403157315489
-4.4625,0.002994810694511755,-0.08266154747723145
-4.46125,0.00366394189449007,-0.1000874371377941
-4.46,0.002994810694512972,-0.0752890556978108
-4.45875,0.002325679494535874,-0.05216624057133992
-4.4575,0.001656548294558776,-0.03708614374972421
-4.45625,0.001656548294558776,-0.02770297239405913
-4.455,-0.0003508453053725187,0.02725560268914703
-4.45375,-0.002692804505291297,0.08288440429773285
-4.4525,-0.003361935705269156,0.09394314196693072
-4.45125,-0.002692804505292362,0.07383634620479128
-4.45,-0.002023673305315264,0.05238909739183277
-4.44875,-0.00135454210533847,0.03663877404482353
-4.4475,-0.0006854109053610678,0.01452129870645292
-4.44625,0.001991113894547325,-0.0595387323507944
-4.445,0.00399850749447862,-0.1017630034513065
-4.44375,0.003329376294501217,-0.08433711379076654
-4.4425,0.002660245094524423,-0.05987384561349688
-4.44125,0.001991113894547325,-0.0424479559529681
-4.44,0.001656548294558928,-0.0327296713346007
-4.43875,0.0003182858946045794,0.001116768198353854
-4.4375,-0.002023673305315264,0.06947987378965907
-4.43625,-0.00336193570526946,0.09427825522964234
-4.435,-0.002692804505292058,0.08053861145883075
-4.43375,-0.002023673305315264,0.05842113612047735
-4.4325,-0.001354542105338166,0.04032501993454361
-4.43125,-0.001019976505349769,0.02725560268915297
-4.43,0.001321982694570227,-0.03541057743621609
-4.42875,0.00366394189449007,-0.09740653103617426
-4.4275,0.00366394189449007,-0.09271494535833959
-4.42625,0.002660245094524271,-0.06691122413023959
-4.425,0.002325679494535874,-0.04646931510539782
-4.42375,0.001656548294558776,-0.03407012438540619
-4.4225,0.000987417094581982,-0.01697934798758765
-4.42125,-0.001354542105338927,0.0510486443410413
-4.42,-0.003027370105280911,0.09159734912802253
-4.41875,-0.003027370105280911,0.08858132976370024
-4.4175,-0.002023673305315721,0.0657936278999422
-4.41625,-0.001689107705326715,0.04635705866318819
-4.415,-0.001354542105338166,0.03395786794319656
-4.41375,0.0003182858946045794,-0.006925950106505584
-4.4125,0.002994810694513276,-0.08132109442646346
-4.41125,0.00366394189449007,-0.09908209734968665
-4.41,0.002994810694512972,-0.07428371590970338
-4.40875,0.002325679494536178,-0.05183112730864765
-4.4075,0.001991113894547325,-0.03775637027513343
-4.40625,0.001656548294558776,-0.02803808565676161
-4.405,-0.0003508453053725187,0.02792582921455198
-4.40375,-0.002692804505292667,0.08455997061127478
-4.4025,-0.00336193570526946,0.09394314196693987
-4.40125,-0.002358238905303813,0.07316611967938631
-4.4,-0.001689107705327019,0.05171887086643757
-4.39875,-0.001354542105338166,0.03697388730751885
-4.3975,-0.0006854109053610678,0.01318084565564301
-4.39625,0.002325679494535874,-0.0638952047659266
-4.395,0.003998507494478315,-0.1037736830275119
-4.39375,0.003329376294501521,-0.08299666073996777
-4.3925,0.002660245094524423,-0.05786316603728203
-4.39125,0.001991113894547629,-0.04043727637676117
-4.39,0.001656548294558167,-0.03071899175836573
-4.38875,0.0003182858946045794,0.003797674299973667
-4.3875,-0.002358238905303813,0.07149055336587394
-4.38625,-0.003361935705269004,0.09595382154314361
-4.385,-0.003027370105280911,0.08254929103505566
-4.38375,-0.002023673305315264,0.06043181569669221
-4.3825,-0.001689107705326715,0.04267081277346095
-4.38125,-0.001019976505348552,0.02926628226533278
-4.38,0.001321982694570227,-0.03474035091081114
-4.37875,0.003329376294501521,-0.09640119124806683
-4.3775,0.003329376294501521,-0.09070426578212733
-4.37625,0.002660245094524423,-0.06590588434214147
-4.375,0.001991113894547325,-0.04479374879188544
-4.37375,0.001656548294558776,-0.03306478459729876
-4.3725,0.0009874170945806126,-0.01563889493673874
-4.37125,-0.001354542105338166,0.05305932391723772
-4.37,-0.003027370105280911,0.09327291544153492
-4.36875,-0.003027370105280911,0.08992178281451167
-4.3675,-0.002358238905303813,0.0678043074761467
-4.36625,-0.001689107705326715,0.04803262497670058
-4.365,-0.001354542105338166,0.03563343425670894
-4.36375,0.0003182858946057965,-0.004580157267622078
-4.3625,0.002994810694512972,-0.07897530158753804
-4.36125,0.00366394189449007,-0.09707141777347178
-4.36,0.002994810694513276,-0.07260814959620213
-4.35875,0.002325679494535569,-0.05015556099511836
-4.3575,0.001656548294558776,-0.03541057743621609
-4.35625,0.001321982694570227,-0.02602740608054675
-4.355,-0.0006854109053601549,0.02993650879074139
-4.35375,-0.002692804505292362,0.08455997061127052
-4.3525,-0.00336193570526946,0.09427825522964234
-4.35125,-0.002692804505292362,0.07316611967938631
-4.35,-0.001689107705326563,0.05138375760371849
-4.34875,-0.001354542105338166,0.0363036607821139
-4.3475,-0.0003508453053725187,0.01351595891834549
-4.34625,0.002325679494534656,-0.06020895887616583
-4.345,0.00366394189449007,-0.101427890188604
-4.34375,0.003329376294501521,-0.08266154747726528
-4.3425,0.002325679494535874,-0.05752805277457955
-4.34125,0.001991113894547173,-0.04010216311404634
-4.34,0.001656548294558776,-0.03038387849567895
-4.33875,0.0003182858946045794,0.003797674299973667
-4.3375,-0.002358238905302596,0.07115544010314083
-4.33625,-0.003027370105280911,0.09528359501774977
-4.335,-0.002692804505292362,0.08053861145884081
-4.33375,-0.002023673305315264,0.05708068306966745
-4.3325,-0.001354542105338014,0.03965479340913257
-4.33125,-0.001019976505349617,0.0262502629010396
-4.33,0.001321982694570227,-0.03842659680053838
-4.32875,0.003663941894489005,-0.09908209734965906
-4.3275,0.003329376294501217,-0.09170960557021997
-4.32625,0.002660245094524423,-0.06490054455403403
-4.325,0.002325679494535874,-0.04412352226648048
-4.32375,0.00165654829455908,-0.03239455807189914
-4.3225,0.001321982694570227,-0.0153037816740675
-4.32125,-0.001354542105338166,0.0533944371799402
-4.32,-0.003027370105280911,0.09394314196693987
-4.31875,-0.003027370105280607,0.08891644302639221
-4.3175,-0.002358238905303813,0.06579362789993183
-4.31625,-0.001689107705326715,0.04602194540048572
-4.315,-0.001019976505349921,0.03429298120590437
-4.31375,0.0003182858946045794,-0.006925950106505584
-4.3125,0.002994810694512972,-0.08098598116375291
-4.31125,0.00399850749447862,-0.09807675756157921
-4.31,0.002994810694512668,-0.07327837612158619
-4.30875,0.002325679494535874,-0.05183112730863745
-4.3075,0.001656548294558776,-0.03708614374972848
-4.30625,0.001656548294558776,-0.02736785913136108
-4.305,-0.0006854109053610678,0.02893116900265941
-4.30375,-0.002692804505292362,0.084895083873973
-4.3025,-0.00336193570526946,0.09394314196693987
-4.30125,-0.002358238905303509,0.07350123294207919
-4.3,-0.001689107705326715,0.05238909739183277
-4.29875,-0.001354542105338166,0.0363036607821139
-4.2975,-0.0006854109053613721,0.01351595891835585
-4.29625,0.001991113894548085,-0.05987384561351562
-4.295,0.00366394189449007,-0.1010927769259015
-4.29375,0.003329376294501521,-0.08266154747726528
-4.2925,0.002660245094524727,-0.05819827929999562
-4.29125,0.001991113894547325,-0.04077238963945572
-4.29,0.001656548294558776,-0.0310541050210839
-4.28875,0.0003182858946045794,0.00446790082537862
-4.2875,-0.00202367330531572,0.07182566662858708
-4.28625,-0.003027370105280911,0.09528359501774977
-4.285,-0.002692804505292362,0.08053861145884081
-4.28375,-0.002023673305315569,0.05708068306967812
-4.2825,-0.001354542105338166,0.03931968014643619
-4.28125,-0.001019976505349617,0.02658537616374208
-4.28,0.001321982694570227,-0.03742125701243095
-4.27875,0.003663941894489918,-0.09841187082427895
-4.2775,0.003329376294501521,-0.09237983209563712
-4.27625,0.002994810694512972,-0.06624099760484393
-4.275,0.001991113894547781,-0.04579908858000216
-4.27375,0.001656548294558776,-0.03306478459729876
-4.2725,0.0009874170945816775,-0.0153037816740675
-4.27125,-0.001689107705326715,0.0533944371799402
-4.27,-0.003027370105281064,0.09226757565342565
-4.26875,-0.00336193570526946,0.08824621650099776
-4.2675,-0.002358238905303813,0.06478828811182441
-4.26625,-0.001689107705327019,0.04501660561238728
-4.265,-0.001354542105337405,0.03228230162966483
-4.26375,0.0003182858946045794,-0.01027708273353035
-4.2625,0.002994810694512972,-0.0840020005280752
-4.26125,0.003663941894489766,-0.09874698408697746
-4.26,0.002994810694512972,-0.07361348938429842
-4.25875,0.002325679494535874,-0.05082578752053002
-4.2575,0.001656548294558776,-0.03608080396162105
-4.25625,0.001321982694569314,-0.02669763260592564
-4.255,-0.0006854109053610678,0.03060673531617179
-4.25375,-0.002692804505292362,0.084895083873973
-4.2525,-0.003361935705269156,0.09461336849234039
-4.25125,-0.002692804505292362,0.07316611967938631
-4.25,-0.002023673305315264,0.05171887086642782
-4.24875,-0.001354542105338166,0.03663877404481637
-4.2475,-0.0006854109053596986,0.01251061913020362
-4.24625,0.002325679494535874,-0.06322497824052165
-4.245,0.00366394189449007,-0.1024332299767114
-4.24375,0.003329376294501673,-0.08266154747727428
-4.2425,0.002660245094524423,-0.05752805277457955
-4.24125,0.001991113894547325,-0.03976704985134829
-4.24,0.001656548294558776,-0.0310541050210839
-4.23875,0.0003182858946033623,0.005138127350814052
-4.2375,-0.002358238905303813,0.07216077989127889
-4.23625,-0.00336193570526946,0.09561870828045226
-4.235,-0.003027370105281064,0.08120883798425231
-4.23375,-0.00202367330531496,0.05808602285776695
-4.2325,-0.001354542105338166,0.04066013319724609
-4.23125,-0.001019976505349617,0.02725560268914703
-4.23,0.001321982694569161,-0.03608080396159225
-4.22875,0.00366394189449007,-0.09640119124806683
-4.2275,0.003329376294501521,-0.0910393790448272
-4.22625,0.002660245094524423,-0.06523565781673651
-4.225,0.001991113894547173,-0.04479374879187995
-4.22375,0.001656548294558776,-0.03272967133459628
-4.2225,0.0009874170945816775,-0.01463355514866255
-4.22125,-0.001689107705325498,0.05406466370531392
-4.22,-0.003027370105280911,0.09360802870423739
-4.21875,-0.003027370105280911,0.08858132976370024
-4.2175,-0.002358238905303813,0.06512340137452688
-4.21625,-0.001689107705326563,0.04535171887507528
-4.215,-0.001354542105338166,0.03328764141779161
-4.21375,0.0003182858946045794,-0.01161753578434026
-4.2125,0.002994810694511755,-0.08567756684155389
-4.21125,0.00366394189449007,-0.09908209734968665
-4.21,0.002660245094524423,-0.07361348938429842
-4.20875,0.002325679494535874,-0.05082578752053002
-4.2075,0.001656548294558623,-0.03708614374972421
-4.20625,0.001321982694570227,-0.02770297239405913
-4.205,-0.0006854109053610678,0.03027162205346932
-4.20375,-0.002692804505291449,0.08556531039935281
-4.2025,-0.003361935705269156,0.09360802870422794
-4.20125,-0.002692804505292362,0.07283100641668384
-4.2,-0.002023673305315264,0.05138375760372534
-4.19875,-0.00135454210533847,0.0369738873075254
-4.1975,-0.0006854109053610678,0.01284573239294053
-4.19625,0.002325679494535874,-0.06221963845241422
-4.195,0.00366394189449007,-0.1017630034513065
-4.19375,0.002994810694512668,-0.08232643421455169
-4.1925,0.002325679494535874,-0.05786316603728203
-4.19125,0.001656548294558776,-0.04010216311405077
-4.19,0.001321982694570379,-0.03071899175838569
-4.18875,0.0003182858946045794,0.00547324061348605
-4.1875,-0.002358238905303813,0.07249589315398136
-4.18625,-0.00336193570526946,0.0949484817550473
-4.185,-0.003027370105280455,0.08053861145883059
-4.18375,-0.002023673305315264,0.05808602285777487
-4.1825,-0.001689107705326715,0.04133035972265105
-4.18125,-0.001354542105338318,0.0282609424772604
-4.18,0.0009874170945816775,-0.03474035091081114
-4.17875,0.003329376294501521,-0.09573096472266188
-4.1775,0.003329376294501521,-0.0910393790448272
-4.17625,0.002660245094524118,-0.06557077107942968
-4.175,0.001991113894547325,-0.04512886205458792
-4.17375,0.001656548294558776,-0.03306478459729876
-4.1725,0.000987417094581982,-0.01496866841137325
-4.17125,-0.001354542105339079,0.05372955044266036
-4.17,-0.00336193570526946,0.09260268891612997
-4.16875,-0.00336193570526946,0.08858132976370024
-4.1675,-0.002358238905304269,0.06478828811183523
-4.16625,-0.001689107705326715,0.04501660561237829
-4.165,-0.001354542105338166,0.03261741489238665
-4.16375,-1.627970538396967e-05,-0.01128242252163778
-4.1625,0.002994810694513276,-0.08433711379078437
-4.16125,0.00366394189449007,-0.09908209734968665
-4.16,0.002994810694512972,-0.07361348938429842
-4.15875,0.001991113894547781,-0.05082578752054039
-4.1575,0.001656548294558776,-0.03641591722432352
-4.15625,0.001321982694570227,-0.0266976326059517
-4.155,-0.001019976505349617,0.03060673531617179
-4.15375,-0.003027370105281064,0.08523019713667913
-4.1525,-0.00336193570526946,0.09327291544153492
-4.15125,-0.002692804505292362,0.07216077989127889
-4.15,-0.002023673305315569,0.05071353107833014
-4.14875,-0.001354542105338166,0.03563343425670894
-4.1475,-0.0006854109053610678,0.009829713028618245
-4.14625,0.002325679494535874,-0.06590588434214147
-4.145,0.003663941894489766,-0.1034385697648095
-4.14375,0.002994810694512972,-0.08299666073996777
-4.1425,0.002325679494535874,-0.05853339256268698
-4.14125,0.001991113894547477,-0.04110750290216612
-4.14,0.001656548294558167,-0.03138921828376976
-4.13875,0.0003182858946045794,0.005138127350783573
-4.1375,-0.002358238905303813,0.07283100641668384
-4.13625,-0.003361935705269004,0.09561870828044189
-4.135,-0.002692804505292362,0.08020349819613833
-4.13375,-0.002023673305315264,0.05741579633236992
-4.1325,-0.001354542105338166,0.04032501993454361
-4.13125,-0.001019976505348552,0.02658537616371282
-4.13,0.001321982694570227,-0.03775637027513343
-4.12875,0.00366394189449007,-0.09807675756157921
-4.1275,0.003329376294501673,-0.09170960557023505
-4.12625,0.002660245094524423,-0.06490054455403403
-4.125,0.001991113894547325,-0.04445863552918296
-4.12375,0.001656548294558776,-0.0323945580718938
-4.1225,0.0009874170945804604,-0.01429844188592883
-4.12125,-0.001689107705326715,0.05439977696804763
-4.12,-0.003027370105280911,0.09394314196693987
-4.11875,-0.003027370105280911,0.08791110323829804
-4.1175,-0.002358238905303813,0.06512340137452688
-4.11625,-0.001689107705326715,0.04568683213778324
-4.115,-0.001354542105338166,0.03328764141779161
-4.11375,0.0003182858946057965,-0.009271742945456294
-4.1125,0.002994810694512972,-0.08266154747726528
-4.11125,0.00366394189449007,-0.09807675756157921
-4.11,0.00266024509452488,-0.07327837612160723
-4.10875,0.001991113894547173,-0.05149601404592873
-4.1075,0.001656548294558776,-0.03775637027513343
-4.10625,0.001321982694570227,-0.02703274586865418
-4.105,-0.0006854109053601549,0.03094184857884791
-4.10375,-0.002692804505292362,0.08523019713667547
-4.1025,-0.00336193570526946,0.09394314196693987
-4.10125,-0.002692804505292362,0.07216077989127889
-4.1,-0.00202367330531496,0.05071353107831338
-4.09875,-0.001354542105338166,0.03529832099400647
-4.0975,-0.0006854109053610678,0.01117016607942815
-4.09625,0.002325679494534505,-0.06490054455399943
-4.095,0.00366394189449007,-0.1034385697648188
-4.09375,0.002994810694512972,-0.08299666073996777
-4.0925,0.002325679494535874,-0.05786316603728203
-4.09125,0.001991113894547173,-0.04043727637674897
-4.09,0.001656548294558776,-0.0310541050210839
-4.08875,0.0003182858946045794,0.005808353876188527
-4.0875,-0.002358238905302596,0.07182566662854639
-4.08625,-0.00336193570526946,0.09461336849234482
-4.085,-0.003027370105280911,0.07919815840803089
-4.08375,-0.002023673305315264,0.05641045654426249
-4.0825,-0.001689107705326411,0.03898456688372792
-4.08125,-0.001019976505349617,0.0262502629010396
-4.08,0.001321982694570227,-0.0380914835378359
-4.07875,0.003663941894489005,-0.09841187082425426
-4.0775,0.003329376294501217,-0.09137449230751794
-4.07625,0.002660245094524423,-0.06557077107943898
-4.075,0.001991113894547325,-0.04579908857999287
-4.07375,0.001656548294558928,-0.0337350111227092
-4.0725,0.0009874170945816775,-0.01463355514866255
-4.07125,-0.001689107705326715,0.05406466370534516
-4.07,-0.00336193570526946,0.09293780217883243
-4.06875,-0.003027370105280455,0.08690576345017718
-4.0675,-0.002023673305315264,0.06344783506101449
-4.06625,-0.001689107705326715,0.04401126582427085
-4.065,-0.001354542105338318,0.03194718836698719
-4.06375,0.0003182858946045794,-0.01429844188596007
-4.0625,0.002994810694512972,-0.08735313315509996
-4.06125,0.00366394189449007,-0.09941721061238912
-4.06,0.002994810694512668,-0.07394860264699084
-4.05875,0.002325679494535874,-0.05183112730863745
-4.0575,0.001991113894547325,-0.03641591722432352
-4.05625,0.001656548294558928,-0.02636251934325379
-4.055,-0.0006854109053610678,0.03228230162968418
-4.05375,-0.002692804505292362,0.08523019713667547
-4.0525,-0.00336193570526946,0.09360802870423739
-4.05125,-0.002692804505291906,0.07149055336586418
-4.05,-0.001689107705326715,0.05004330455291543
-4.04875,-0.001354542105338166,0.03529832099400647
-4.0475,-0.0006854109053613721,0.01049993955403447
-4.04625,0.002325679494536635,-0.0655707710794559
-4.045,0.00399850749447862,-0.1027683432394139
-4.04375,0.003329376294501521,-0.08266154747726528
-4.0425,0.00232567949453633,-0.05819827929999562
-4.04125,0.001991113894547325,-0.04077238963945572
-4.04,0.001656548294558776,-0.03004876523297647
-4.03875,0.0003182858946045794,0.007148806926998433
-4.0375,-0.002358238905304269,0.07350123294209886
-4.03625,-0.00336193570526946,0.09561870828045226
-4.035,-0.002692804505292362,0.08020349819613833
-4.03375,-0.002023673305315569,0.05775090959508261
-4.0325,-0.001354542105338166,0.04032501993454361
-4.03125,-0.001019976505349617,0.02524492311293217
-4.03,0.001321982694570227,-0.04110750290215819
-4.02875,0.003663941894489918,-0.1004225504004921
-4.0275,0.003329376294501521,-0.09070426578212473
-4.02625,0.002660245094524423,-0.06523565781673651
-4.025,0.001991113894547629,-0.04445863552919241
-4.02375,0.001656548294558776,-0.0323945580718938
-4.0225,0.0009874170945816775,-0.01295798883515016
-4.02125,-0.001354542105338166,0.05607534328156001
-4.02,-0.003361935705269308,0.09394314196693697
-4.01875,-0.003027370105280911,0.08757598997559281
-4.0175,-0.002358238905303813,0.06411806158641944
-4.01625,-0.001689107705327019,0.04468149234968465
-4.015,-0.001354542105337405,0.03328764141777149
-4.01375,0.0003182858946045794,-0.0109473092589353
-4.0125,0.002994810694512972,-0.08366688726537272
-4.01125,0.003663941894489766,-0.09841187082427499
-4.01,0.002994810694512972,-0.07361348938429842
-4.00875,0.002325679494535874,-0.05116090078323249
-4.0075,0.001656548294558776,-0.03708614374972848
-4.00625,0.001321982694569314,-0.02669763260592503
-4.005,-0.0006854109053610678,0.0319471883669817
-4.00375,-0.002692804505292362,0.08590042366208044
-4.0025,-0.003361935705269156,0.09293780217882923
-4.00125,-0.002692804505292362,0.07115544010317146
-4,-0.002023673305315264,0.05004330455291543
-3.99875,-0.001354542105338166,0.0363036607821139
-3.9975,-0.0003508453053725187,0.01150527934213063
-3.99625,0.002325679494535874,-0.06322497824052165
-3.995,0.00366394189449007,-0.101427890188604
-3.99375,0.002994810694512972,-0.08132109442645538
-3.9925,0.002325679494535874,-0.05652271298647212
-3.99125,0.001656548294558776,-0.03943193658864581
-3.99,0.001321982694570227,-0.02971365197027399
-3.98875,0.0003182858946045794,0.007819033452403385
-3.9875,-0.002358238905303813,0.07383634620479128
-3.98625,-0.003027370105280911,0.09561870828045226
-3.985,-0.002692804505292362,0.07986838493343586
-3.98375,-0.002023673305315264,0.05708068306966745
-3.9825,-0.001354542105338166,0.03998990667184114
-3.98125,-0.001019976505349617,0.02658537616374208
-3.98,0.001321982694570227,-0.03775637027513343
-3.97875,0.00366394189449007,-0.09673630451076931
-3.9775,0.00366394189449007,-0.08869358620590986
-3.97625,0.002660245094524423,-0.06356009150322413
-3.975,0.001991113894547325,-0.04311818247837305
-3.97375,0.001656548294558776,-0.03138921828378637
-3.9725,0.0009874170945816775,-0.01228776230974521
-3.97125,-0.001689107705326715,0.05708068306966745
-3.97,-0.00336193570526946,0.09394314196693987
-3.96875,-0.003027370105280911,0.08891644302640273
-3.9675,-0.002023673305315264,0.06478828811182441
-3.96625,-0.001689107705326715,0.04501660561237829
-3.965,-0.001354542105338166,0.03261741489238665
-3.96375,0.0006528514945931285,-0.0153037816740675
-3.9625,0.003329376294501521,-0.08768824641780244
-3.96125,0.00366394189449007,-0.09740653103617426
-3.96,0.002994810694512972,-0.07126769654538109
-3.95875,0.002325679494535874,-0.04847999468161268
-3.9575,0.001656548294558776,-0.03407012438540619
-3.95625,0.001321982694570227,-0.02435183976703437
-3.955,-0.0006854109053610678,0.03395786794319656
-3.95375,-0.002692804505292362,0.08791110323829529
-3.9525,-0.00336193570526946,0.09427825522964234
-3.95125,-0.002692804505292362,0.07316611967938631
-3.95,-0.001689107705326715,0.05238909739183277
-3.94875,-0.001354542105338166,0.0376441138329238
-3.9475,-0.0003508453053725187,0.01284573239294053
-3.94625,0.002325679494535874,-0.06255475171511669
-3.945,0.00366394189449007,-0.100757663663199
-3.94375,0.002994810694512972,-0.08098598116375291
-3.9425,0.002325679494535874,-0.05685782624917459
-3.94125,0.001991113894547325,-0.03976704985134829
-3.94,0.001656548294558776,-0.03071899175838142
-3.93875,0.0003182858946045794,0.007483920189700909
-3.9375,-0.002358238905303813,0.07417145946749375
-3.93625,-0.00336193570526946,0.09528359501774977
-3.935,-0.002692804505292362,0.07953327167073337
-3.93375,-0.002023673305315264,0.05708068306966745
-3.9325,-0.001354542105338166,0.03965479340913866
-3.93125,-0.001019976505349617,0.02591514963833712
-3.93,0.001321982694570227,-0.04010216311405077
-3.92875,0.00366394189449007,-0.09874698408698417
-3.9275,0.003329376294501521,-0.09137449230752968
-3.92625,0.002660245094524423,-0.06557077107943898
-3.925,0.001991113894547325,-0.04512886205458792
-3.92375,0.001656548294558776,-0.03339989786000123
-3.9225,0.0009874170945816775,-0.01329310209785264
-3.92125,-0.001689107705326715,0.05641045654426249
-3.92,-0.003027370105280911,0.09260268891612997
-3.91875,-0.003027370105280911,0.08724087671289034
-3.9175,-0.002358238905303813,0.06378294832371698
-3.91625,-0.001689107705326715,0.04501660561237829
-3.915,-0.001019976505349617,0.03295252815508913
-3.91375,0.0003182858946045794,-0.01463355514866255
-3.9125,0.003329376294501521,-0.08802335968050491
-3.91125,0.00399850749447862,-0.09874698408698417
-3.91,0.002994810694512972,-0.07327837612159595
-3.90875,0.002325679494535874,-0.05049067425782754
-3.9075,0.001991113894547325,-0.03742125701243095
-3.90625,0.001321982694570227,-0.02736785913135666
-3.905,-0.0006854109053610678,0.03261741489238665
-3.90375,-0.002692804505292362,0.08523019713667547
-3.9025,-0.003027370105280911,0.09260268891612997
-3.90125,-0.002358238905303813,0.07115544010317146
-3.9,-0.001689107705326715,0.05037841781561792
-3.89875,-0.001354542105338166,0.03529832099400647
-3.8975,-0.0006854109053610678,0.008824373240510816
-3.89625,0.002325679494535874,-0.06624099760484393
-3.895,0.00366394189449007,-0.1020981167140089
-3.89375,0.002994810694512972,-0.08165620768915786
-3.8925,0.002325679494535874,-0.05685782624917459
-3.89125,0.001991113894547325,-0.03943193658864581
-3.89,0.001656548294558776,-0.03038387849567895
-3.88875,0.0003182858946045794,0.008824373240510816
-3.8875,-0.002358238905303813,0.07450657273019623
-3.88625,-0.00336193570526946,0.09528359501774977
-3.885,-0.002692804505292362,0.07819281861992347
-3.88375,-0.002023673305315264,0.05507000349345258
-3.8825,-0.001354542105338166,0.0376441138329238
-3.88125,-0.0006854109053610678,0.02323424353671731
-3.88,0.001656548294558776,-0.04445863552918296
-3.87875,0.00366394189449007,-0.1020981167140089
-3.8775,0.003329376294501521,-0.0910393790448272
-3.87625,0.002660245094524423,-0.06523565781673651
-3.875,0.001991113894547325,-0.04546397531729039
-3.87375,0.001656548294558776,-0.03407012438540619
-3.8725,0.0009874170945816775,-0.01329310209785264
-3.87125,-0.001354542105338166,0.05674556980696497
-3.87,-0.003027370105280911,0.09293780217883243
-3.86875,-0.003027370105280911,0.0862355369247829
-3.8675,-0.002358238905303813,0.06277760853560954
-3.86625,-0.001689107705326715,0.04367615256156838
-3.865,-0.001354542105338166,0.0319471883669817
-3.86375,0.0006528514945931285,-0.01496866841136502
-3.8625,0.003329376294501521,-0.08701801989239749
-3.86125,0.00366394189449007,-0.0984118708242817
-3.86,0.002994810694512972,-0.072608149596191
-3.85875,0.001991113894547325,-0.05015556099512506
-3.8575,0.001656548294558776,-0.03574569069891857
-3.85625,0.001321982694570227,-0.02502206629243932
-3.855,-0.0006854109053610678,0.03429298120589903
-3.85375,-0.002692804505292362,0.08724087671289034
-3.8525,-0.003027370105280911,0.09327291544153492
-3.85125,-0.002358238905303813,0.07182566662857641
-3.85,-0.001689107705326715,0.05037841781561792
-3.84875,-0.001354542105338166,0.03563343425670894
-3.8475,-0.0003508453053725187,0.008489259977808339
-3.84625,0.002325679494535874,-0.0682516771810588
-3.845,0.00366394189449007,-0.1020981167140089
-3.84375,0.003329376294501521,-0.08098598116375291
-3.8425,0.002660245094524423,-0.05652271298647212
-3.84125,0.001991113894547325,-0.03943193658864581
-3.84,0.001656548294558776,-0.03038387849567895
-3.83875,-1.627970538396967e-05,0.009159486503213292
-3.8375,-0.002358238905303813,0.07450657273019623
-3.83625,-0.00336193570526946,0.09561870828045226
-3.835,-0.002692804505292362,0.07953327167073337
-3.83375,-0.002023673305315264,0.05708068306966745
-3.8325,-0.001354542105338166,0.04032501993454361
-3.83125,-0.001019976505349617,0.02591514963833712
-3.83,0.001321982694570227,-0.04010216311405077
-3.82875,0.00366394189449007,-0.09774164429887673
-3.8275,0.003329376294501521,-0.09003403925671978
-3.82625,0.002660245094524423,-0.06456543129133155
-3.825,0.001991113894547325,-0.04445863552918296
-3.82375,0.001656548294558776,-0.03306478459729876
-3.8225,0.0009874170945816775,-0.01262287557244769
-3.82125,-0.001689107705326715,0.05641045654426249
-3.82,-0.00336193570526946,0.09293780217883243
-3.81875,-0.003027370105280911,0.08590042366208044
-3.8175,-0.002358238905303813,0.06311272179831202
-3.81625,-0.001689107705326715,0.04367615256156838
-3.815,-0.001019976505349617,0.03228230162968418
-3.81375,0.0006528514945931285,-0.01396332862325759
-3.8125,0.002994810694512972,-0.08567756684158757
-3.81125,0.00366394189449007,-0.0984118708242817
-3.81,0.002994810694512972,-0.07361348938429842
-3.80875,0.002325679494535874,-0.05116090078323249
-3.8075,0.001656548294558776,-0.03708614374972848
-3.80625,0.001321982694570227,-0.02636251934324923
-3.805,-0.0006854109053610678,0.03362275468049408
-3.80375,-0.002692804505292362,0.08523019713667547
-3.8025,-0.00336193570526946,0.09159734912802253
-3.80125,-0.002358238905303813,0.06981498705236155
-3.8,-0.001689107705326715,0.04836773823940305
-3.79875,-0.001354542105338166,0.03395786794319656
-3.7975,-0.0003508453053725187,0.007483920189700909
-3.79625,0.002325679494535874,-0.06791656391835632
-3.795,0.00399850749447862,-0.1024332299767114
-3.79375,0.003329376294501521,-0.08165620768915786
-3.7925,0.002325679494535874,-0.05719293951187707
-3.79125,0.001991113894547325,-0.03976704985134829
-3.79,0.001656548294558776,-0.03038387849567895
-3.78875,-1.627970538396967e-05,0.009159486503213292
-3.7875,-0.002358238905303813,0.07450657273019623
-3.78625,-0.003027370105280911,0.09561870828045226
-3.785,-0.002692804505292362,0.07919815840803089
-3.78375,-0.002023673305315264,0.05607534328156001
-3.7825,-0.001354542105338166,0.03898456688373371
-3.78125,-0.001019976505349617,0.02390447006212226
-3.78,0.001321982694570227,-0.04378840900377801
-3.77875,0.00366394189449007,-0.0997523238750916
-3.7775,0.003329376294501521,-0.08936381273131483
-3.77625,0.002660245094524423,-0.06322497824052165
-3.775,0.001991113894547325,-0.04378840900377801
-3.77375,0.001656548294558776,-0.03272967133459628
-3.7725,0.0009874170945816775,-0.01161753578434026
-3.77125,-0.001689107705326715,0.05808602285777487
-3.77,-0.003027370105280911,0.09360802870423739
-3.76875,-0.003027370105280911,0.08690576345018786
-3.7675,-0.002023673305315264,0.06311272179831202
-3.76625,-0.001354542105338166,0.04401126582427085
-3.765,-0.001019976505349617,0.0319471883669817
-3.76375,0.0006528514945931285,-0.01899002756379474
-3.7625,0.003329376294501521,-0.09070426578212473
-3.76125,0.00366394189449007,-0.09774164429887673
-3.76,0.002994810694512972,-0.07126769654538109
-3.75875,0.002325679494535874,-0.04915022120701763
-3.7575,0.001991113894547325,-0.03474035091081114
-3.75625,0.001321982694570227,-0.02401672650433189
-3.755,-0.0006854109053610678,0.0363036607821139
-3.75375,-0.002692804505292362,0.08690576345018786
-3.7525,-0.003027370105280911,0.09327291544153492
-3.75125,-0.002358238905303813,0.07115544010317146
-3.75,-0.001689107705326715,0.05004330455291543
-3.74875,-0.001354542105338166,0.03496320773130399
-3.7475,-0.0003508453053725187,0.00647858040159348
-3.74625,0.002660245094524423,-0.07126769654538109
-3.745,0.00366394189449007,-0.1027683432394139
-3.74375,0.002994810694512972,-0.08031575463834796
-3.7425,0.002325679494535874,-0.05585248646106716
-3.74125,0.001991113894547325,-0.03909682332594334
-3.74,0.001656548294558776,-0.03004876523297647
-3.73875,0.0003182858946045794,0.0104999395540232
-3.7375,-0.002358238905303813,0.0748416859928987
-3.73625,-0.00336193570526946,0.09561870828045226
-3.735,-0.003027370105280911,0.07953327167073337
-3.73375,-0.002023673305315264,0.05641045654426249
-3.7325,-0.001354542105338166,0.03965479340913866
-3.73125,-0.0006854109053610678,0.02323424353671731
-3.73,0.001656548294558776,-0.0468044283681003
-3.72875,0.00366394189449007,-0.1017630034513065
-3.7275,0.00366394189449007,-0.08902869946861235
-3.72625,0.002660245094524423,-0.06255475171511669
-3.725,0.001991113894547325,-0.04211284269026563
-3.72375,0.001656548294558776,-0.03071899175838142
-3.7225,0.0006528514945931285,-0.009606856208125396
-3.72125,-0.001689107705326715,0.05976158917128726
-3.72,-0.003027370105280911,0.0949484817550473
-3.71875,-0.003027370105280911,0.08824621650099776
-3.7175,-0.002358238905303813,0.06512340137452688
-3.71625,-0.001689107705326715,0.04602194540048572
-3.715,-0.001354542105338166,0.03462809446860151
-3.71375,0.0003182858946045794,-0.01329310209785264
-3.7125,0.002994810694512972,-0.08500734031618262
-3.71125,0.00366394189449007,-0.09506073819725692
-3.71,0.002994810694512972,-0.06959213023186871
-3.70875,0.002325679494535874,-0.04747465489350525
-3.7075,0.001656548294558776,-0.03339989786000123
-3.70625,0.001321982694570227,-0.02267627345352198
-3.705,-0.001019976505349617,0.03730900057022132
-3.70375,-0.003027370105280911,0.08891644302640273
-3.7025,-0.003027370105280911,0.09394314196693987
-3.70125,-0.002358238905303813,0.07216077989127889
-3.7,-0.001689107705326715,0.05138375760372534
-3.69875,-0.001354542105338166,0.03663877404481637
-3.6975,-0.0003508453053725187,0.008489259977808339
-3.69625,0.002325679494535874,-0.0682516771810588
-3.695,0.00366394189449007,-0.101427890188604
-3.69375,0.002994810694512972,-0.08031575463834796
-3.6925,0.002325679494535874,-0.05551737319836469
-3.69125,0.001991113894547325,-0.03842659680053838
-3.69,0.001656548294558776,-0.02971365197027399
-3.68875,-1.627970538396967e-05,0.01150527934213063
-3.6875,-0.002358238905303813,0.07584702578100613
-3.68625,-0.00336193570526946,0.09595382154315472
-3.685,-0.002692804505292362,0.07886304514532842
-3.68375,-0.002023673305315264,0.05641045654426249
-3.6825,-0.001354542105338166,0.03931968014643619
-3.68125,-0.001019976505349617,0.02457469658752721
-3.68,0.001321982694570227,-0.04211284269026563
-3.67875,0.00366394189449007,-0.09874698408698417
-3.6775,0.003329376294501521,-0.08902869946861235
-3.67625,0.002660245094524423,-0.06288986497781918
-3.675,0.001991113894547325,-0.04345329574107553
-3.67375,0.001656548294558776,-0.03205944480919132
-3.6725,0.0009874170945816775,-0.0109473092589353
-3.67125,-0.001689107705326715,0.05842113612047735
-3.67,-0.003027370105280911,0.09360802870423739
-3.66875,-0.003027370105280911,0.08590042366208044
-3.6675,-0.002358238905303813,0.06210738201020459
-3.66625,-0.001689107705326715,0.0433410392988659
-3.665,-0.001354542105338166,0.03127696184157674
-3.66375,0.0006528514945931285,-0.02033048061460465
-3.6625,0.003329376294501521,-0.09137449230752968
-3.66125,0.00366394189449007,-0.09740653103617426
-3.66,0.002994810694512972,-0.07126769654538109
-3.65875,0.001991113894547325,-0.04915022120701763
-3.6575,0.001656548294558776,-0.03474035091081114
-3.65625,0.001321982694570227,-0.02368161324162941
-3.655,-0.001019976505349617,0.0363036607821139
-3.65375,-0.003027370105280911,0.08858132976370024
-3.6525,-0.00336193570526946,0.09293780217883243
-3.65125,-0.002358238905303813,0.07149055336587394
-3.65,-0.001689107705326715,0.05071353107832039
-3.64875,-0.001354542105338166,0.0363036607821139
-3.6475,-0.0003508453053725187,0.009494599765915769
-3.64625,0.002325679494535874,-0.06657611086754642
-3.645,0.00366394189449007,-0.1010927769259015
-3.64375,0.002994810694512972,-0.07998064137564548
-3.6425,0.002325679494535874,-0.05585248646106716
-3.64125,0.001991113894547325,-0.03876171006324086
-3.64,0.001656548294558776,-0.03004876523297647
-3.63875,-1.627970538396967e-05,0.01117016607942815
-3.6375,-0.002358238905303813,0.0761821390437086
-3.63625,-0.00336193570526946,0.09528359501774977
-3.635,-0.002692804505292362,0.07852793188262594
-3.63375,-0.002023673305315264,0.05674556980696497
-3.6325,-0.001354542105338166,0.04032501993454361
-3.63125,-0.001019976505349617,0.02524492311293217
-3.63,0.001656548294558776,-0.0424479559529681
-3.62875,0.00366394189449007,-0.09874698408698417
-3.6275,0.003329376294501521,-0.08869358620590986
-3.62625,0.002660245094524423,-0.0638952047659266
-3.625,0.001991113894547325,-0.04378840900377801
-3.62375,0.001656548294558776,-0.03205944480919132
-3.6225,0.0009874170945816775,-0.01061219599623283
-3.62125,-0.001689107705326715,0.0590913626458823
-3.62,-0.00336193570526946,0.09327291544153492
-3.61875,-0.003027370105280911,0.08657065018748539
-3.6175,-0.002023673305315264,0.06378294832371698
-3.61625,-0.001689107705326715,0.04434637908697334
-3.615,-0.001354542105338166,0.03261741489238665
-3.61375,0.0006528514945931285,-0.0153037816740675
-3.6125,0.002994810694512972,-0.08701801989239749
-3.61125,0.00366394189449007,-0.09606607798536436
-3.61,0.002660245094524423,-0.07026235675727366
-3.60875,0.001991113894547325,-0.04847999468161268
-3.6075,0.001656548294558776,-0.03440523764810866
-3.60625,0.001321982694570227,-0.02401672650433189
-3.605,-0.001019976505349617,0.03697388730751885
-3.60375,-0.002692804505292362,0.08724087671289034
-3.6025,-0.00336193570526946,0.09293780217883243
-3.60125,-0.002358238905303813,0.07082032684046899
-3.6,-0.001689107705326715,0.04937307802751048
-3.59875,-0.001354542105338166,0.03496320773130399
-3.5975,-0.0003508453053725187,0.00647858040159348
-3.59625,0.002660245094524423,-0.07059747001997613
-3.595,0.00366394189449007,-0.1024332299767114
-3.59375,0.003329376294501521,-0.07998064137564548
-3.5925,0.002325679494535874,-0.05484714667295974
-3.59125,0.001656548294558776,-0.03775637027513343
-3.59,0.001321982694570227,-0.02870831218216656
-3.58875,-1.627970538396967e-05,0.01251061913023806
-3.5875,-0.002358238905303813,0.07718747883181604
-3.58625,-0.00336193570526946,0.09595382154315472
-3.585,-0.002692804505292362,0.07886304514532842
-3.58375,-0.002023673305315264,0.05641045654426249
-3.5825,-0.001354542105338166,0.03965479340913866
-3.58125,-0.001019976505349617,0.02457469658752721
-3.58,0.001321982694570227,-0.04211284269026563
-3.57875,0.00366394189449007,-0.09874698408698417
-3.5775,0.003329376294501521,-0.08936381273131483
-3.57625,0.002660245094524423,-0.06356009150322413
-3.575,0.001991113894547325,-0.04378840900377801
-3.57375,0.001656548294558776,-0.03306478459729876
-3.5725,0.0009874170945816775,-0.0109473092589353
-3.57125,-0.001689107705326715,0.05808602285777487
-3.57,-0.00336193570526946,0.09226757565342748
-3.56875,-0.003027370105280911,0.084895083873973
-3.5675,-0.002358238905303813,0.06177226874750211
-3.56625,-0.001689107705326715,0.04300592603616343
-3.565,-0.001019976505349617,0.03161207510427922
-3.56375,0.0003182858946045794,-0.01731446125028236
-3.5625,0.002994810694512972,-0.08835847294320739
-3.56125,0.00366394189449007,-0.0984118708242817
-3.56,0.002660245094524423,-0.072608149596191
-3.55875,0.002325679494535874,-0.05049067425782754
-3.5575,0.001656548294558776,-0.036751030487026
-3.55625,0.001321982694570227,-0.02535717955514179
-3.555,-0.0006854109053610678,0.03596854751941142
-3.55375,-0.002692804505292362,0.08690576345018786
-3.5525,-0.00336193570526946,0.0905920093399151
-3.55125,-0.002358238905303813,0.0691447605269566
-3.55,-0.002023673305315264,0.0476975117139981
-3.54875,-0.001354542105338166,0.03328764141779161
-3.5475,-0.0003508453053725187,0.005138127350783573
-3.54625,0.002325679494535874,-0.07126769654538109
-3.545,0.00366394189449007,-0.1041087962902238
-3.54375,0.002994810694512972,-0.08266154747726528
-3.5425,0.002325679494535874,-0.0581982792999845
-3.54125,0.001991113894547325,-0.04110750290215819
-3.54,0.001656548294558776,-0.03205944480919132
-3.53875,0.0003182858946045794,0.009829713028618245
-3.5375,-0.002358238905303813,0.07417145946749375
-3.53625,-0.00336193570526946,0.09293780217883243
-3.535,-0.002692804505292362,0.07551191251830365
-3.53375,-0.002023673305315264,0.0533944371799402
-3.5325,-0.001354542105338166,0.03697388730751885
-3.53125,-0.001019976505349617,0.0218937904859074
-3.53,0.001656548294558776,-0.04646931510539782
-3.52875,0.00366394189449007,-0.1017630034513065
-3.5275,0.003329376294501521,-0.0910393790448272
-3.52625,0.002660245094524423,-0.06590588434214147
-3.525,0.001991113894547325,-0.04613420184269534
-3.52375,0.001656548294558776,-0.03474035091081114
-3.5225,0.0009874170945816775,-0.01228776230974521
-3.52125,-0.001689107705326715,0.05674556980696497
-3.52,-0.003027370105280911,0.09226757565342748
-3.51875,-0.003027370105280911,0.0835546308231631
-3.5175,-0.002023673305315264,0.06043181569669221
-3.51625,-0.001689107705326715,0.04166547298535352
-3.515,-0.001354542105338166,0.02993650879076684
-3.51375,0.0006528514945931285,-0.02033048061460465
-3.5125,0.003329376294501521,-0.0910393790448272
-3.51125,0.00366394189449007,-0.0984118708242817
-3.51,0.002994810694512972,-0.07227303633348851
-3.50875,0.002325679494535874,-0.05082578752053002
-3.5075,0.001991113894547325,-0.03641591722432352
-3.50625,0.001321982694570227,-0.02535717955514179
-3.505,-0.0006854109053610678,0.03596854751941142
-3.50375,-0.002692804505292362,0.0862355369247829
-3.5025,-0.003027370105280911,0.09126223586532005
-3.50125,-0.002358238905303813,0.06981498705236155
-3.5,-0.001689107705326715,0.049037964764808
-3.49875,-0.001019976505349617,0.03462809446860151
-3.4975,-1.627970538396967e-05,0.006813693664295956
-3.49625,0.002660245094524423,-0.06925701696916622
-3.495,0.00366394189449007,-0.1020981167140089
-3.49375,0.003329376294501521,-0.08031575463834796
-3.4925,0.002325679494535874,-0.05585248646106716
-3.49125,0.001991113894547325,-0.03876171006324086
-3.49,0.001656548294558776,-0.02971365197027399
-3.48875,-1.627970538396967e-05,0.01284573239294053
-3.4875,-0.002358238905303813,0.07685236556911357
-3.48625,-0.00336193570526946,0.09528359501774977
-3.485,-0.002692804505292362,0.07785770535722099
-3.48375,-0.002023673305315264,0.05507000349345258
-3.4825,-0.001354542105338166,0.03831434035832876
-3.48125,-0.0006854109053610678,0.02222890374860988
-3.48,0.001991113894547325,-0.04780976815620773
-3.47875,0.00399850749447862,-0.101427890188604
-3.4775,0.00366394189449007,-0.08835847294320739
-3.47625,0.002660245094524423,-0.06221963845241422
-3.475,0.001991113894547325,-0.04278306921567058
-3.47375,0.001656548294558776,-0.03172433154648885
-3.4725,0.0009874170945816775,-0.008266403157315489
-3.47125,-0.001689107705326715,0.06110204222209716
-3.47,-0.003027370105280911,0.09528359501774977
-3.46875,-0.002692804505292362,0.08657065018748539
-3.4675,-0.002023673305315264,0.06378294832371698
-3.46625,-0.001354542105338166,0.04468149234967581
-3.465,-0.001019976505349617,0.03295252815508913
-3.46375,0.0009874170945816775,-0.01697934798757988
-3.4625,0.003329376294501521,-0.08768824641780244
-3.46125,0.00366394189449007,-0.09506073819725692
-3.46,0.002994810694512972,-0.06892190370646376
-3.45875,0.002325679494535874,-0.0468044283681003
-3.4575,0.001991113894547325,-0.03272967133459628
-3.45625,0.001321982694570227,-0.02167093366541455
-3.455,-0.001019976505349617,0.03998990667184114
-3.45375,-0.003027370105280911,0.0905920093399151
-3.4525,-0.003027370105280911,0.0949484817550473
-3.45125,-0.002358238905303813,0.0735012329420888
-3.45,-0.001689107705326715,0.05238909739183277
-3.44875,-0.001354542105338166,0.03797922709562628
-3.4475,-0.0003508453053725187,0.008824373240510816
-3.44625,0.002660245094524423,-0.06758145065565384
-3.445,0.00366394189449007,-0.0997523238750916
-3.44375,0.003329376294501521,-0.07796996179943062
-3.4425,0.002325679494535874,-0.05384180688485231
-3.44125,0.001991113894547325,-0.03708614374972848
-3.44,0.001656548294558776,-0.02870831218216656
-3.43875,-1.627970538396967e-05,0.01485641196915539
-3.4375,-0.002358238905303813,0.07819281861992347
-3.43625,-0.00336193570526946,0.09662404806855968
-3.435,-0.002692804505292362,0.07919815840803089
-3.43375,-0.002023673305315264,0.05741579633236992
-3.4325,-0.001354542105338166,0.04066013319724609
-3.43125,-0.001019976505349617,0.02524492311293217
-3.43,0.001321982694570227,-0.04345329574107553
-3.42875,0.00366394189449007,-0.09807675756157921
-3.4275,0.003329376294501521,-0.08701801989239749
-3.42625,0.002660245094524423,-0.06188452518971174
-3.425,0.001991113894547325,-0.04211284269026563
-3.42375,0.001656548294558776,-0.0310541050210839
-3.4225,0.0009874170945816775,-0.008266403157315489
-3.42125,-0.001689107705326715,0.06177226874750211
-3.42,-0.00336193570526946,0.0949484817550473
-3.41875,-0.003027370105280911,0.08657065018748539
-3.4175,-0.002358238905303813,0.06311272179831202
-3.41625,-0.001689107705326715,0.04401126582427085
-3.415,-0.001019976505349617,0.03228230162968418
-3.41375,0.0006528514945931285,-0.01966025408919969
-3.4125,0.003329376294501521,-0.08902869946861235
-3.41125,0.003329376294501521,-0.09539585145995941
-3.41,0.002660245094524423,-0.06925701696916622
-3.40875,0.001991113894547325,-0.04747465489350525
-3.4075,0.001656548294558776,-0.03373501112270371
-3.40625,0.001321982694570227,-0.0223411601908195
-3.405,-0.001019976505349617,0.03965479340913866
-3.40375,-0.003027370105280911,0.08992178281451015
-3.4025,-0.00336193570526946,0.09327291544153492
-3.40125,-0.002358238905303813,0.07115544010317146
-3.4,-0.001689107705326715,0.05071353107832039
-3.39875,-0.001354542105338166,0.03663877404481637
-3.3975,-0.0003508453053725187,0.00647858040159348
-3.39625,0.002660245094524423,-0.06992724349457118
-3.395,0.00399850749447862,-0.1010927769259015
-3.39375,0.003329376294501521,-0.07897530158753804
-3.3925,0.002325679494535874,-0.05417692014755478
-3.39125,0.001656548294558776,-0.03775637027513343
-3.39,0.001321982694570227,-0.02870831218216656
-3.38875,-1.627970538396967e-05,0.01418618544375044
-3.3875,-0.002358238905303813,0.07819281861992347
-3.38625,-0.00336193570526946,0.09595382154315472
-3.385,-0.002692804505292362,0.07852793188262594
-3.38375,-0.002023673305315264,0.05607534328156001
-3.3825,-0.001689107705326715,0.03998990667184114
-3.38125,-0.001019976505349617,0.02390447006212226
-3.38,0.001656548294558776,-0.04479374879188544
-3.37875,0.00366394189449007,-0.09941721061238912
-3.3775,0.003329376294501521,-0.08768824641780244
-3.37625,0.002660245094524423,-0.06221963845241422
-3.375,0.001991113894547325,-0.04278306921567058
-3.37375,0.001656548294558776,-0.03205944480919132
-3.3725,0.0006528514945931285,-0.008266403157315489
-3.37125,-0.002023673305315264,0.06143715548479964
-3.37,-0.003027370105280911,0.09394314196693987
-3.36875,-0.003027370105280911,0.08556531039937795
-3.3675,-0.002358238905303813,0.06244249527290707
-3.36625,-0.001354542105338166,0.04367615256156838
-3.365,-0.001019976505349617,0.0319471883669817
-3.36375,0.0006528514945931285,-0.02066559387730712
-3.3625,0.003329376294501521,-0.0910393790448272
-3.36125,0.003329376294501521,-0.09640119124806683
-3.36,0.002660245094524423,-0.07059747001997613
-3.35875,0.001991113894547325,-0.04881510794431516
-3.3575,0.001656548294558776,-0.03440523764810866
-3.35625,0.001321982694570227,-0.02267627345352198
-3.355,-0.001019976505349617,0.03998990667184114
-3.35375,-0.003027370105280911,0.08824621650099776
-3.3525,-0.00336193570526946,0.09226757565342748
-3.35125,-0.002692804505292362,0.07048521357776651
-3.35,-0.002023673305315264,0.05037841781561792
-3.34875,-0.001354542105338166,0.03596854751941142
-3.3475,-0.0003508453053725187,0.00647858040159348
-3.34625,0.002660245094524423,-0.06959213023186871
-3.345,0.00366394189449007,-0.1004225504004966
-3.34375,0.002994810694512972,-0.07830507506213309
-3.3425,0.002325679494535874,-0.05384180688485231
-3.34125,0.001656548294558776,-0.03742125701243095
-3.34,0.001321982694570227,-0.02870831218216656
-3.33875,-1.627970538396967e-05,0.01552663849456035
-3.3375,-0.002358238905303813,0.07886304514532842
-3.33625,-0.00336193570526946,0.09628893480585721
-3.335,-0.002692804505292362,0.07819281861992347
-3.33375,-0.002023673305315264,0.05574023001885754
-3.3325,-0.001354542105338166,0.03931968014643619
-3.33125,-0.001019976505349617,0.02222890374860988
-3.33,0.001656548294558776,-0.04847999468161268
-3.32875,0.00366394189449007,-0.1010927769259015
-3.3275,0.003329376294501521,-0.08668290662969501
-3.32625,0.002660245094524423,-0.06154941192700927
-3.325,0.001991113894547325,-0.04278306921567058
-3.32375,0.001321982694570227,-0.03138921828378637
-3.3225,0.0006528514945931285,-0.00726106336920806
-3.32125,-0.002023673305315264,0.06244249527290707
-3.32,-0.00336193570526946,0.09461336849234482
-3.31875,-0.003027370105280911,0.0862355369247829
-3.3175,-0.002358238905303813,0.06277760853560954
-3.31625,-0.001689107705326715,0.04367615256156838
-3.315,-0.001354542105338166,0.03161207510427922
-3.31375,0.0006528514945931285,-0.02066559387730712
-3.3125,0.003329376294501521,-0.09070426578212473
-3.31125,0.00366394189449007,-0.09673630451076931
-3.31,0.002660245094524423,-0.07059747001997613
-3.30875,0.002325679494535874,-0.04881510794431516
-3.3075,0.001656548294558776,-0.03507546417351361
-3.30625,0.001321982694570227,-0.02368161324162941
-3.305,-0.001019976505349617,0.03864945362103123
-3.30375,-0.003027370105280911,0.08757598997559281
-3.3025,-0.003027370105280911,0.09025689607721263
-3.30125,-0.002358238905303813,0.0678043074761467
-3.3,-0.001689107705326715,0.04736239845129563
-3.29875,-0.001019976505349617,0.03362275468049408
-3.2975,-1.627970538396967e-05,0.0007816549356513777
-3.29625,0.002660245094524423,-0.07696462201132319
-3.295,0.00366394189449007,-0.1044439095529263
-3.29375,0.003329376294501521,-0.08132109442645538
-3.2925,0.002325679494535874,-0.05685782624917459
-3.29125,0.001991113894547325,-0.04043727637675324
-3.29,0.001656548294558776,-0.0310541050210839
-3.28875,-1.627970538396967e-05,0.01351595891834549
-3.2875,-0.002358238905303813,0.07551191251830365
-3.28625,-0.00336193570526946,0.09360802870423739
-3.285,-0.002692804505292362,0.07584702578100613
-3.28375,-0.002023673305315264,0.05372955044264268
-3.2825,-0.001354542105338166,0.03730900057022132
-3.28125,-0.0006854109053610678,0.0205533374350975
-3.28,0.001991113894547325,-0.04915022120701763
-3.27875,0.00366394189449007,-0.1024332299767114
-3.2775,0.003329376294501521,-0.08936381273131483
-3.27625,0.002660245094524423,-0.06356009150322413
-3.275,0.001991113894547325,-0.04412352226648048
-3.27375,0.001656548294558776,-0.03306478459729876
-3.2725,0.0006528514945931285,-0.008936629682720442
-3.27125,-0.001689107705326715,0.06043181569669221
-3.27,-0.003027370105280911,0.09293780217883243
-3.26875,-0.003027370105280911,0.08388974408586557
-3.2675,-0.002023673305315264,0.06076692895939469
-3.26625,-0.001354542105338166,0.04166547298535352
-3.265,-0.001019976505349617,0.02960139552806436
-3.26375,0.0006528514945931285,-0.02301138671622446
-3.2625,0.003329376294501521,-0.09305005862104207
-3.26125,0.00366394189449007,-0.09740653103617426
-3.26,0.002994810694512972,-0.07193792307078604
-3.25875,0.002325679494535874,-0.04982044773242258
-3.2575,0.001656548294558776,-0.03608080396162105
-3.25625,0.001321982694570227,-0.02368161324162941
-3.255,-0.001019976505349617,0.03965479340913866
-3.25375,-0.003027370105280911,0.08757598997559281
-3.2525,-0.00336193570526946,0.09159734912802253
-3.25125,-0.002358238905303813,0.06947987378965907
-3.25,-0.001689107705326715,0.049037964764808
-3.24875,-0.001354542105338166,0.03462809446860151
-3.2475,-0.0003508453053725187,0.004132787562676143
-3.24625,0.002660245094524423,-0.07193792307078604
-3.245,0.00366394189449007,-0.1017630034513065
-3.24375,0.002994810694512972,-0.079645528112943
-3.2425,0.002325679494535874,-0.05518225993566221
-3.24125,0.001991113894547325,-0.03842659680053838
-3.24,0.001656548294558776,-0.02937853870757151
-3.23875,-1.627970538396967e-05,0.01485641196915539
-3.2375,-0.002358238905303813,0.07651725230641108
-3.23625,-0.00336193570526946,0.09461336849234482
-3.235,-0.002692804505292362,0.0761821390437086
-3.23375,-0.002023673305315264,0.05406466370534516
-3.2325,-0.001354542105338166,0.0376441138329238
-3.23125,-0.0006854109053610678,0.01988311090969254
-3.23,0.001991113894547325,-0.0525013538340424
-3.22875,0.00399850749447862,-0.1037736830275213
-3.2275,0.003329376294501521,-0.08802335968050491
-3.22625,0.002660245094524423,-0.06188452518971174
-3.225,0.001991113894547325,-0.04211284269026563
-3.22375,0.001656548294558776,-0.03071899175838142
-3.2225,0.0009874170945816775,-0.005920610318398154
-3.22125,-0.001689107705326715,0.06411806158641944
-3.22,-0.00336193570526946,0.09595382154315472
-3.21875,-0.003027370105280911,0.0862355369247829
-3.2175,-0.002358238905303813,0.06311272179831202
-3.21625,-0.001689107705326715,0.04434637908697334
-3.215,-0.001354542105338166,0.0319471883669817
-3.21375,0.0006528514945931285,-0.02033048061460465
-3.2125,0.003329376294501521,-0.0896989259940173
-3.21125,0.00366394189449007,-0.09506073819725692
-3.21,0.002660245094524423,-0.06925701696916622
-3.20875,0.001991113894547325,-0.04747465489350525
-3.2075,0.001656548294558776,-0.03407012438540619
-3.20625,0.001321982694570227,-0.0223411601908195
-3.205,-0.001019976505349617,0.04099524645994856
-3.20375,-0.003027370105280911,0.08992178281451015
-3.2025,-0.00336193570526946,0.09226757565342748
-3.20125,-0.002692804505292362,0.06981498705236155
-3.2,-0.001689107705326715,0.04937307802751048
-3.19875,-0.001354542105338166,0.03563343425670894
-3.1975,-0.0003508453053725187,0.004132787562676143
-3.19625,0.002660245094524423,-0.07193792307078604
-3.195,0.00366394189449007,-0.1010927769259015
-3.19375,0.002994810694512972,-0.07864018832483557
-3.1925,0.002325679494535874,-0.05384180688485231
-3.19125,0.001656548294558776,-0.03775637027513343
-3.19,0.001656548294558776,-0.02870831218216656
-3.18875,-0.0003508453053725187,0.0161968650199653
-3.1875,-0.002358238905303813,0.07819281861992347
-3.18625,-0.00336193570526946,0.09561870828045226
-3.185,-0.002692804505292362,0.07785770535722099
-3.18375,-0.002023673305315264,0.05540511675615506
-3.1825,-0.001354542105338166,0.03864945362103123
-3.18125,-0.001019976505349617,0.02088845069779997
-3.18,0.001656548294558776,-0.04948533446972011
-3.17875,0.00366394189449007,-0.1017630034513065
-3.1775,0.003329376294501521,-0.08768824641780244
-3.17625,0.002660245094524423,-0.06221963845241422
-3.175,0.001656548294558776,-0.04311818247837305
-3.17375,0.001656548294558776,-0.03272967133459628
-3.1725,0.0006528514945931285,-0.007931289894613013
-3.17125,-0.002023673305315264,0.06177226874750211
-3.17,-0.00336193570526946,0.09327291544153492
-3.16875,-0.003027370105280911,0.08455997061127052
-3.1675,-0.002358238905303813,0.06177226874750211
-3.16625,-0.001689107705326715,0.04300592603616343
-3.165,-0.001019976505349617,0.03127696184157674
-3.16375,0.0006528514945931285,-0.02301138671622446
-3.1625,0.003329376294501521,-0.09170960557023215
-3.16125,0.00366394189449007,-0.09673630451076931
-3.16,0.002994810694512972,-0.07093258328267861
-3.15875,0.001991113894547325,-0.04915022120701763
-3.1575,0.001656548294558776,-0.03541057743621609
-3.15625,0.001321982694570227,-0.02334649997892694
-3.155,-0.001019976505349617,0.03998990667184114
-3.15375,-0.003027370105280911,0.08858132976370024
-3.1525,-0.003027370105280911,0.09025689607721263
-3.15125,-0.002358238905303813,0.06746919421344422
-3.15,-0.001689107705326715,0.04669217192589067
-3.14875,-0.001019976505349617,0.03261741489238665
-3.1475,-1.627970538396967e-05,0.0001114284102464246
-3.14625,0.002660245094524423,-0.07662950874862071
-3.145,0.00399850749447862,-0.1027683432394139
-3.14375,0.003329376294501521,-0.07897530158753804
-3.1425,0.002325679494535874,-0.05518225993566221
-3.14125,0.001991113894547325,-0.03876171006324086
-3.14,0.001656548294558776,-0.03004876523297647
-3.13875,-1.627970538396967e-05,0.01552663849456035
-3.1375,-0.002358238905303813,0.07752259209451852
-3.13625,-0.003027370105280911,0.09528359501774977
-3.135,-0.002692804505292362,0.07685236556911357
-3.13375,-0.002023673305315264,0.05473489023075011
-3.1325,-0.001354542105338166,0.03831434035832876
-3.13125,-0.0006854109053610678,0.02021822417239502
-3.13,0.001991113894547325,-0.05116090078323249
-3.12875,0.00366394189449007,-0.1020981167140089
-3.1275,0.003329376294501521,-0.08735313315509996
-3.12625,0.002660245094524423,-0.06121429866430679
-3.125,0.001991113894547325,-0.04177772942756315
-3.12375,0.001656548294558776,-0.03071899175838142
-3.1225,0.0006528514945931285,-0.005585497055695677
-3.12125,-0.002023673305315264,0.06411806158641944
-3.12,-0.003027370105280911,0.09595382154315472
-3.11875,-0.003027370105280911,0.08556531039937795
-3.1175,-0.002023673305315264,0.06277760853560954
-3.11625,-0.001689107705326715,0.04434637908697334
-3.115,-0.001354542105338166,0.03228230162968418
-3.11375,0.0006528514945931285,-0.02200604692811703
-3.1125,0.003329376294501521,-0.0910393790448272
-3.11125,0.003329376294501521,-0.09472562493455444
-3.11,0.002660245094524423,-0.06892190370646376
-3.10875,0.002325679494535874,-0.04713954163080277
-3.1075,0.001656548294558776,-0.03339989786000123
-3.10625,0.001321982694570227,-0.0210007071400096
-3.105,-0.001019976505349617,0.04233569951075847
-3.10375,-0.003027370105280911,0.09025689607721263
-3.1025,-0.003027370105280911,0.09193246239072501
-3.10125,-0.002358238905303813,0.07015010031506402
-3.1,-0.001689107705326715,0.04970819129021296
-3.09875,-0.001354542105338166,0.0363036607821139
-3.0975,-1.627970538396967e-05,0.00446790082537862
-3.09625,0.002660245094524423,-0.07227303633348851
-3.095,0.00366394189449007,-0.1004225504004966
-3.09375,0.002994810694512972,-0.07763484853672814
-3.0925,0.002325679494535874,-0.05384180688485231
-3.09125,0.001656548294558776,-0.03775637027513343
-3.09,0.001656548294558776,-0.02870831218216656
-3.08875,-1.627970538396967e-05,0.01720220480807273
-3.0875,-0.002358238905303813,0.07953327167073337
-3.08625,-0.00336193570526946,0.09561870828045226
-3.085,-0.002692804505292362,0.07685236556911357
-3.08375,-0.002023673305315264,0.05439977696804763
-3.0825,-0.001354542105338166,0.03797922709562628
-3.08125,-0.001019976505349617,0.01988311090969254
-3.08,0.001656548294558776,-0.0525013538340424
-3.07875,0.00366394189449007,-0.1020981167140089
-3.0775,0.003329376294501521,-0.08668290662969501
-3.07625,0.002660245094524423,-0.06087918540160431
-3.075,0.001991113894547325,-0.04177772942756315
-3.07375,0.001656548294558776,-0.0310541050210839
-3.0725,0.0006528514945931285,-0.006255723581100631
-3.07125,-0.001689107705326715,0.06344783506101449
-3.07,-0.00336193570526946,0.09427825522964234
-3.06875,-0.003027370105280911,0.08422485734856805
-3.0675,-0.002023673305315264,0.06143715548479964
-3.06625,-0.001689107705326715,0.04267081277346095
-3.065,-0.001019976505349617,0.03094184857887427
-3.06375,0.0006528514945931285,-0.02301138671622446
-3.0625,0.003329376294501521,-0.09170960557023215
-3.06125,0.00366394189449007,-0.09573096472266188
-3.06,0.002994810694512972,-0.07026235675727366
-3.05875,0.002325679494535874,-0.04814488141891021
-3.0575,0.001656548294558776,-0.03507546417351361
-3.05625,0.001321982694570227,-0.0223411601908195
-3.055,-0.001019976505349617,0.04133035972265105
-3.05375,-0.003027370105280911,0.08858132976370024
-3.0525,-0.003027370105280911,0.0905920093399151
-3.05125,-0.002358238905303813,0.06847453400155165
-3.05,-0.001689107705326715,0.04803262497670058
-3.04875,-0.001354542105338166,0.03496320773130399
-3.0475,-1.627970538396967e-05,0.001786994723758807
-3.04625,0.002660245094524423,-0.07461882917240585
-3.045,0.00366394189449007,-0.1020981167140089
-3.04375,0.002994810694512972,-0.07897530158753804
-3.0425,0.002325679494535874,-0.05484714667295974
-3.04125,0.001991113894547325,-0.03842659680053838
-3.04,0.001656548294558776,-0.03004876523297647
-3.03875,-1.627970538396967e-05,0.01653197828266778
-3.0375,-0.002692804505292362,0.07752259209451852
-3.03625,-0.00336193570526946,0.09427825522964234
-3.035,-0.002692804505292362,0.0761821390437086
-3.03375,-0.002023673305315264,0.05406466370534516
-3.0325,-0.001354542105338166,0.03797922709562628
-3.03125,-0.001019976505349617,0.0205533374350975
-3.03,0.001656548294558776,-0.05082578752053002
-3.02875,0.00366394189449007,-0.1024332299767114
-3.0275,0.003329376294501521,-0.08835847294320739
-3.02625,0.002660245094524423,-0.06322497824052165
-3.025,0.001991113894547325,-0.04378840900377801
-3.02375,0.001656548294558776,-0.03306478459729876
-3.0225,0.0006528514945931285,-0.00726106336920806
-3.02125,-0.001689107705326715,0.06244249527290707
-3.02,-0.00336193570526946,0.09293780217883243
-3.01875,-0.003027370105280911,0.0835546308231631
-3.0175,-0.002023673305315264,0.06009670243398973
-3.01625,-0.001354542105338166,0.04166547298535352
-3.015,-0.001019976505349617,0.02993650879076684
-3.01375,0.0009874170945816775,-0.02468695302973684
-3.0125,0.003329376294501521,-0.09271494535833959
-3.01125,0.00366394189449007,-0.09573096472266188
-3.01,0.002660245094524423,-0.06992724349457118
-3.00875,0.001991113894547325,-0.04814488141891021
-3.0075,0.001656548294558776,-0.03440523764810866
-3.00625,0.001321982694570227,-0.02200604692811703
-3.005,-0.001019976505349617,0.04166547298535352
-3.00375,-0.003027370105280911,0.08992178281451015
-3.0025,-0.003027370105280911,0.0905920093399151
-3.00125,-0.002358238905303813,0.06880964726425412
-3,-0.001689107705326715,0.04803262497670058
-2.99875,-0.001354542105338166,0.03496320773130399
-2.9975,-1.627970538396967e-05,0.002122107986461284
-2.99625,0.002660245094524423,-0.0739486026470009
-2.995,0.00366394189449007,-0.101427890188604
-2.99375,0.002994810694512972,-0.07864018832483557
-2.9925,0.002325679494535874,-0.05451203341025726
-2.99125,0.001656548294558776,-0.03876171006324086
-2.99,0.001656548294558776,-0.02971365197027399
-2.98875,-0.0003508453053725187,0.01787243133347768
-2.9875,-0.002358238905303813,0.07886304514532842
-2.98625,-0.00336193570526946,0.09461336849234482
-2.985,-0.002692804505292362,0.0761821390437086
-2.98375,-0.002023673305315264,0.05439977696804763
-2.9825,-0.001354542105338166,0.03831434035832876
-2.98125,-0.0006854109053610678,0.0205533374350975
-2.98,0.001656548294558776,-0.05049067425782754
-2.97875,0.00366394189449007,-0.1010927769259015
-2.9775,0.003329376294501521,-0.08701801989239749
-2.97625,0.002660245094524423,-0.06154941192700927
-2.975,0.001991113894547325,-0.04211284269026563
-2.97375,0.001656548294558776,-0.03138921828378637
-2.9725,0.0006528514945931285,-0.005250383792993201
-2.97125,-0.001689107705326715,0.06445317484912193
-2.97,-0.00336193570526946,0.09528359501774977
-2.96875,-0.003027370105280911,0.08388974408586557
-2.9675,-0.002023673305315264,0.06076692895939469
-2.96625,-0.001354542105338166,0.042000586248056
-2.965,-0.001019976505349617,0.02993650879076684
-2.96375,0.0009874170945816775,-0.02535717955514179
-2.9625,0.00366394189449007,-0.09305005862104207
-2.96125,0.00366394189449007,-0.09539585145995941
-2.96,0.002994810694512972,-0.06925701696916622
-2.95875,0.002325679494535874,-0.04747465489350525
-2.9575,0.001991113894547325,-0.03407012438540619
-2.95625,0.001321982694570227,-0.0210007071400096
-2.955,-0.001019976505349617,0.0433410392988659
-2.95375,-0.002692804505292362,0.08992178281451015
-2.9525,-0.003027370105280911,0.09159734912802253
-2.95125,-0.002358238905303813,0.0691447605269566
-2.95,-0.001689107705326715,0.049037964764808
-2.94875,-0.001354542105338166,0.03496320773130399
-2.9475,-1.627970538396967e-05,0.001786994723758807
-2.94625,0.002660245094524423,-0.07461882917240585
-2.945,0.00399850749447862,-0.1010927769259015
-2.94375,0.003329376294501521,-0.07729973527402567
-2.9425,0.002660245094524423,-0.05350669362214983
-2.94125,0.001991113894547325,-0.03742125701243095
-2.94,0.001656548294558776,-0.02837319891946408
-2.93875,-1.627970538396967e-05,0.01921288438428759
-2.9375,-0.002358238905303813,0.08020349819613833
-2.93625,-0.00336193570526946,0.09561870828045226
-2.935,-0.002692804505292362,0.07685236556911357
-2.93375,-0.001689107705326715,0.05439977696804763
-2.9325,-0.001354542105338166,0.0376441138329238
-2.93125,-0.0006854109053610678,0.01921288438428759
-2.93,0.001991113894547325,-0.05283646709674487
-2.92875,0.00399850749447862,-0.1024332299767114
-2.9275,0.003329376294501521,-0.08668290662969501
-2.92625,0.002660245094524423,-0.06121429866430679
-2.925,0.001991113894547325,-0.04177772942756315
-2.92375,0.001991113894547325,-0.0310541050210839
-2.9225,0.0006528514945931285,-0.004580157267588247
-2.92125,-0.002023673305315264,0.06512340137452688
-2.92,-0.003027370105280911,0.09561870828045226
-2.91875,-0.002692804505292362,0.08455997061127052
-2.9175,-0.002358238905303813,0.06143715548479964
-2.91625,-0.001689107705326715,0.04300592603616343
-2.915,-0.001019976505349617,0.03060673531617179
-2.91375,0.0009874170945816775,-0.02401672650433189
-2.9125,0.003329376294501521,-0.09170960557023215
-2.91125,0.00366394189449007,-0.09472562493455444
-2.91,0.002994810694512972,-0.06858679044376127
-2.90875,0.002325679494535874,-0.04747465489350525
-2.9075,0.001656548294558776,-0.03440523764810866
-2.90625,0.001321982694570227,-0.0210007071400096
-2.905,-0.001019976505349617,0.04401126582427085
-2.90375,-0.003027370105280911,0.0905920093399151
-2.9025,-0.003027370105280911,0.09092712260261758
-2.90125,-0.002358238905303813,0.0678043074761467
-2.9,-0.001689107705326715,0.04669217192589067
-2.89875,-0.001354542105338166,0.03295252815508913
-2.8975,-1.627970538396967e-05,-0.002234364428670911
-2.89625,0.002994810694512972,-0.07864018832483557
-2.895,0.00399850749447862,-0.1020981167140089
-2.89375,0.002994810694512972,-0.07796996179943062
-2.8925,0.002325679494535874,-0.05417692014755478
-2.89125,0.001991113894547325,-0.03742125701243095
-2.89,0.001656548294558776,-0.02870831218216656
-2.88875,-0.0003508453053725187,0.01854265785888264
-2.8875,-0.002358238905303813,0.08020349819613833
-2.88625,-0.003027370105280911,0.09528359501774977
-2.885,-0.002358238905303813,0.07651725230641108
-2.88375,-0.002023673305315264,0.05439977696804763
-2.8825,-0.001354542105338166,0.03864945362103123
-2.88125,-0.0006854109053610678,0.02021822417239502
-2.88,0.001991113894547325,-0.05082578752053002
-2.87875,0.00366394189449007,-0.1010927769259015
-2.8775,0.003329376294501521,-0.08601268010429006
-2.87625,0.002660245094524423,-0.06054407213890184
-2.875,0.002325679494535874,-0.04144261616486067
-2.87375,0.001656548294558776,-0.03071899175838142
-2.8725,0.0006528514945931285,-0.004245044004885771
-2.87125,-0.002023673305315264,0.06545851463722936
-2.87,-0.00336193570526946,0.09528359501774977
-2.86875,-0.003027370105280911,0.08422485734856805
-2.8675,-0.002023673305315264,0.06110204222209716
-2.86625,-0.001354542105338166,0.04300592603616343
-2.865,-0.001019976505349617,0.03094184857887427
-2.86375,0.0009874170945816775,-0.02502206629243932
-2.8625,0.003329376294501521,-0.09271494535833959
-2.86125,0.00366394189449007,-0.09472562493455444
-2.86,0.002660245094524423,-0.06925701696916622
-2.85875,0.002325679494535874,-0.04780976815620773
-2.8575,0.001991113894547325,-0.03440523764810866
-2.85625,0.001656548294558776,-0.02133582040271208
-2.855,-0.001019976505349617,0.04401126582427085
-2.85375,-0.003027370105280911,0.08992178281451015
-2.8525,-0.003027370105280911,0.09126223586532005
-2.85125,-0.002358238905303813,0.06880964726425412
-2.85,-0.001689107705326715,0.04836773823940305
-2.84875,-0.001354542105338166,0.03496320773130399
-2.8475,-1.627970538396967e-05,0.0007816549356513777
-2.84625,0.002994810694512972,-0.07629439548591824
-2.845,0.00399850749447862,-0.1017630034513065
-2.84375,0.002994810694512972,-0.07763484853672814
-2.8425,0.002325679494535874,-0.05350669362214983
-2.84125,0.001991113894547325,-0.03742125701243095
-2.84,0.001656548294558776,-0.02870831218216656
-2.83875,-1.627970538396967e-05,0.01988311090969254
-2.8375,-0.002358238905303813,0.07986838493343586
-2.83625,-0.003027370105280911,0.09561870828045226
-2.835,-0.002692804505292362,0.07685236556911357
-2.83375,-0.001689107705326715,0.05439977696804763
-2.8325,-0.001354542105338166,0.03831434035832876
-2.83125,-0.0006854109053610678,0.01988311090969254
-2.83,0.001991113894547325,-0.0525013538340424
-2.82875,0.00366394189449007,-0.1010927769259015
-2.8275,0.003329376294501521,-0.08500734031618262
-2.82625,0.002660245094524423,-0.05987384561349688
-2.825,0.001991113894547325,-0.04144261616486067
-2.82375,0.001656548294558776,-0.03038387849567895
-2.8225,0.0006528514945931285,-0.002904590954075865
-2.82125,-0.002023673305315264,0.06646385442533678
-2.82,-0.003027370105280911,0.09595382154315472
-2.81875,-0.002692804505292362,0.084895083873973
-2.8175,-0.002023673305315264,0.06177226874750211
-2.81625,-0.001689107705326715,0.04367615256156838
-2.815,-0.001019976505349617,0.03094184857887427
-2.81375,0.0009874170945816775,-0.02803808565676161
-2.8125,0.003329376294501521,-0.09439051167185197
-2.81125,0.00366394189449007,-0.09237983209563712
-2.81,0.002660245094524423,-0.06590588434214147
-2.80875,0.001991113894547325,-0.04445863552918296
-2.8075,0.001656548294558776,-0.03138921828378637
-2.80625,0.001321982694570227,-0.01764957451298483
-2.805,-0.001019976505349617,0.04736239845129563
-2.80375,-0.003027370105280911,0.09226757565342748
-2.8025,-0.00336193570526946,0.09327291544153492
-2.80125,-0.002358238905303813,0.07015010031506402
-2.8,-0.001689107705326715,0.04937307802751048
-2.79875,-0.001019976505349617,0.03462809446860151
-2.7975,-1.627970538396967e-05,-0.001564137903265958
-2.79625,0.002994810694512972,-0.07830507506213309
-2.795,0.00366394189449007,-0.100757663663199
-2.79375,0.002994810694512972,-0.07595928222321575
-2.7925,0.002325679494535874,-0.05183112730863745
-2.79125,0.001656548294558776,-0.03574569069891857
-2.79,0.001321982694570227,-0.02736785913135666
-2.78875,-0.0003508453053725187,0.0218937904859074
-2.7875,-0.002358238905303813,0.08120883798424576
-2.78625,-0.00336193570526946,0.09628893480585721
-2.785,-0.002692804505292362,0.0761821390437086
-2.78375,-0.002023673305315264,0.05372955044264268
-2.7825,-0.001354542105338166,0.03831434035832876
-2.78125,-0.0006854109053610678,0.01787243133347768
-2.78,0.001991113894547325,-0.05618759972376964
-2.77875,0.00399850749447862,-0.1031034565021164
-2.7775,0.003329376294501521,-0.08567756684158757
-2.77625,0.002660245094524423,-0.06020895887619936
-2.775,0.001991113894547325,-0.04144261616486067
-2.77375,0.001656548294558776,-0.03004876523297647
-2.7725,0.0006528514945931285,-0.002234364428670911
-2.77125,-0.002023673305315264,0.06679896768803927
-2.77,-0.00336193570526946,0.09561870828045226
-2.76875,-0.002692804505292362,0.08455997061127052
-2.7675,-0.002023673305315264,0.06043181569669221
-2.76625,-0.001354542105338166,0.042000586248056
-2.765,-0.001019976505349617,0.02960139552806436
-2.76375,0.0009874170945816775,-0.02904342544486904
-2.7625,0.00366394189449007,-0.09606607798536436
-2.76125,0.00366394189449007,-0.09472562493455444
-2.76,0.002660245094524423,-0.06858679044376127
-2.75875,0.002325679494535874,-0.0468044283681003
-2.7575,0.001656548294558776,-0.03407012438540619
-2.75625,0.001321982694570227,-0.02066559387730712
-2.755,-0.001019976505349617,0.04468149234967581
-2.75375,-0.003027370105280911,0.08992178281451015
-2.7525,-0.003027370105280911,0.0905920093399151
-2.75125,-0.002358238905303813,0.06713408095074173
-2.75,-0.001689107705326715,0.04702728518859314
-2.74875,-0.001354542105338166,0.03328764141779161
-2.7475,-1.627970538396967e-05,-0.004245044004885771
-2.74625,0.002994810694512972,-0.08132109442645538
-2.745,0.00366394189449007,-0.1020981167140089
-2.74375,0.002994810694512972,-0.07729973527402567
-2.7425,0.002325679494535874,-0.05350669362214983
-2.74125,0.001656548294558776,-0.03742125701243095
-2.74,0.001656548294558776,-0.02837319891946408
-2.73875,-0.0003508453053725187,0.02088845069779997
-2.7375,-0.002358238905303813,0.08053861145884081
-2.73625,-0.00336193570526946,0.0949484817550473
-2.735,-0.002692804505292362,0.07551191251830365
-2.73375,-0.002023673305315264,0.0533944371799402
-2.7325,-0.001354542105338166,0.0376441138329238
-2.73125,-0.0006854109053610678,0.01787243133347768
-2.73,0.001991113894547325,-0.05618759972376964
-2.72875,0.00399850749447862,-0.1027683432394139
-2.7275,0.003329376294501521,-0.08534245357888511
-2.72625,0.002660245094524423,-0.06020895887619936
-2.725,0.001991113894547325,-0.04144261616486067
-2.72375,0.001656548294558776,-0.0310541050210839
-2.7225,0.0006528514945931285,-0.003239704216778341
-2.72125,-0.002023673305315264,0.06612874116263431
-2.72,-0.00336193570526946,0.09528359501774977
-2.71875,-0.003027370105280911,0.0835546308231631
-2.7175,-0.002023673305315264,0.05942647590858478
-2.71625,-0.001354542105338166,0.04099524645994856
-2.715,-0.001019976505349617,0.02859605573995693
-2.71375,0.0009874170945816775,-0.0310541050210839
-2.7125,0.00366394189449007,-0.09707141777347178
-2.71125,0.00366394189449007,-0.09472562493455444
-2.71,0.002660245094524423,-0.0682516771810588
-2.70875,0.001991113894547325,-0.0468044283681003
-2.7075,0.001656548294558776,-0.03373501112270371
-2.70625,0.001321982694570227,-0.01932514082649722
-2.705,-0.001354542105338166,0.04602194540048572
-2.70375,-0.003027370105280911,0.09025689607721263
-2.7025,-0.003027370105280911,0.09126223586532005
-2.70125,-0.002358238905303813,0.0678043074761467
-2.7,-0.001689107705326715,0.04736239845129563
-2.69875,-0.001354542105338166,0.03295252815508913
-2.6975,0.0003182858946045794,-0.004580157267588247
-2.69625,0.002994810694512972,-0.08165620768915786
-2.695,0.00399850749447862,-0.1017630034513065
-2.69375,0.002994810694512972,-0.07696462201132319
-2.6925,0.002325679494535874,-0.05317158035944735
-2.69125,0.001991113894547325,-0.03742125701243095
-2.69,0.001656548294558776,-0.02803808565676161
-2.68875,-0.0003508453053725187,0.02155867722320493
-2.6875,-0.002358238905303813,0.08053861145884081
-2.68625,-0.00336193570526946,0.09561870828045226
-2.685,-0.002692804505292362,0.07517679925560118
-2.68375,-0.002023673305315264,0.05238909739183277
-2.6825,-0.001354542105338166,0.0363036607821139
-2.68125,-0.0006854109053610678,0.01552663849456035
-2.68,0.001991113894547325,-0.0581982792999845
-2.67875,0.00399850749447862,-0.1041087962902238
-2.6775,0.003329376294501521,-0.08534245357888511
-2.67625,0.002660245094524423,-0.05987384561349688
-2.675,0.001991113894547325,-0.04110750290215819
-2.67375,0.001656548294558776,-0.03071899175838142
-2.6725,0.0006528514945931285,-0.001899251165968435
-2.67125,-0.002023673305315264,0.06679896768803927
-2.67,-0.003027370105280911,0.09561870828045226
-2.66875,-0.003027370105280911,0.0835546308231631
-2.6675,-0.002023673305315264,0.05976158917128726
-2.66625,-0.001354542105338166,0.04133035972265105
-2.665,-0.001019976505349617,0.02859605573995693
-2.66375,0.001321982694570227,-0.03172433154648885
-2.6625,0.00366394189449007,-0.09740653103617426
-2.66125,0.00366394189449007,-0.09405539840914949
-2.66,0.002994810694512972,-0.06791656391835632
-2.65875,0.002325679494535874,-0.04613420184269534
-2.6575,0.001656548294558776,-0.03339989786000123
-2.65625,0.001321982694570227,-0.01899002756379474
-2.655,-0.001019976505349617,0.04702728518859314
-2.65375,-0.003027370105280911,0.09126223586532005
-2.6525,-0.00336193570526946,0.09092712260261758
-2.65125,-0.002358238905303813,0.0678043074761467
-2.65,-0.001689107705326715,0.04736239845129563
-2.64875,-0.001019976505349617,0.03328764141779161
-2.6475,-1.627970538396967e-05,-0.004245044004885771
-2.64625,0.002994810694512972,-0.08031575463834796
-2.645,0.00366394189449007,-0.1010927769259015
-2.64375,0.002994810694512972,-0.07629439548591824
-2.6425,0.002325679494535874,-0.0525013538340424
-2.64125,0.001991113894547325,-0.03641591722432352
-2.64,0.001656548294558776,-0.02736785913135666
-2.63875,-0.0003508453053725187,0.02289913027401483
-2.6375,-0.002692804505292362,0.08154395124694823
-2.63625,-0.00336193570526946,0.09595382154315472
-2.635,-0.002692804505292362,0.0761821390437086
-2.63375,-0.001689107705326715,0.0533944371799402
-2.6325,-0.001354542105338166,0.03730900057022132
-2.63125,-0.0006854109053610678,0.01653197828266778
-2.63,0.001991113894547325,-0.05886850582538945
-2.62875,0.00366394189449007,-0.1034385697648188
-2.6275,0.003329376294501521,-0.08567756684158757
-2.62625,0.002660245094524423,-0.0595387323507944
-2.625,0.001991113894547325,-0.04043727637675324
-2.62375,0.001656548294558776,-0.03004876523297647
-2.6225,0.0006528514945931285,-0.0008939113778610051
-2.62125,-0.002023673305315264,0.0678043074761467
-2.62,-0.00336193570526946,0.09628893480585721
-2.61875,-0.003027370105280911,0.08388974408586557
-2.6175,-0.002023673305315264,0.06110204222209716
-2.61625,-0.001354542105338166,0.04267081277346095
-2.615,-0.001019976505349617,0.02993650879076684
-2.61375,0.0009874170945816775,-0.03038387849567895
-2.6125,0.00366394189449007,-0.09573096472266188
-2.61125,0.00366394189449007,-0.09305005862104207
-2.61,0.002660245094524423,-0.06691122413024889
-2.60875,0.001991113894547325,-0.04546397531729039
-2.6075,0.001656548294558776,-0.03272967133459628
-2.60625,0.001321982694570227,-0.01764957451298483
-2.605,-0.001354542105338166,0.0476975117139981
-2.60375,-0.003027370105280911,0.09226757565342748
-2.6025,-0.003027370105280911,0.09126223586532005
-2.60125,-0.002358238905303813,0.06813942073884917
-2.6,-0.001689107705326715,0.04736239845129563
-2.59875,-0.001354542105338166,0.03362275468049408
-2.5975,-1.627970538396967e-05,-0.003909930742183295
-2.59625,0.002994810694512972,-0.08132109442645538
-2.595,0.00366394189449007,-0.1000874371377941
-2.59375,0.002994810694512972,-0.0752890556978108
-2.5925,0.002325679494535874,-0.05149601404593497
-2.59125,0.001656548294558776,-0.03574569069891857
-2.59,0.001656548294558776,-0.02703274586865418
-2.58875,-0.0003508453053725187,0.02390447006212226
-2.5875,-0.002692804505292362,0.08288440429775815
-2.58625,-0.00336193570526946,0.09662404806855968
-2.585,-0.002692804505292362,0.07685236556911357
-2.58375,-0.002023673305315264,0.05473489023075011
-2.5825,-0.001354542105338166,0.03864945362103123
-2.58125,-0.0006854109053610678,0.01787243133347768
-2.58,0.001991113894547325,-0.05618759972376964
-2.57875,0.00366394189449007,-0.1020981167140089
-2.5775,0.003329376294501521,-0.08433711379077767
-2.57625,0.002325679494535874,-0.05853339256268698
-2.575,0.001991113894547325,-0.03976704985134829
-2.57375,0.001656548294558776,-0.02971365197027399
-2.5725,0.0006528514945931285,-0.0005587981151585285
-2.57125,-0.002023673305315264,0.06880964726425412
-2.57,-0.00336193570526946,0.09662404806855968
-2.56875,-0.003027370105280911,0.08422485734856805
-2.5675,-0.002023673305315264,0.06076692895939469
-2.56625,-0.001354542105338166,0.04233569951075847
-2.565,-0.001019976505349617,0.02926628226536189
-2.56375,0.001321982694570227,-0.03172433154648885
-2.5625,0.00366394189449007,-0.09707141777347178
-2.56125,0.00366394189449007,-0.09305005862104207
-2.56,0.002660245094524423,-0.06691122413024889
-2.55875,0.001991113894547325,-0.04546397531729039
-2.5575,0.001656548294558776,-0.0323945580718938
-2.55625,0.0009874170945816775,-0.01731446125028236
-2.555,-0.001354542105338166,0.049037964764808
-2.55375,-0.003027370105280911,0.09226757565342748
-2.5525,-0.00336193570526946,0.09293780217883243
-2.55125,-0.002358238905303813,0.06947987378965907
-2.55,-0.001689107705326715,0.049037964764808
-2.54875,-0.001354542105338166,0.03496320773130399
-2.5475,-1.627970538396967e-05,-0.003909930742183295
-2.54625,0.002994810694512972,-0.08031575463834796
-2.545,0.00366394189449007,-0.09941721061238912
-2.54375,0.002994810694512972,-0.07428371590970338
-2.5425,0.002325679494535874,-0.05049067425782754
-2.54125,0.001656548294558776,-0.03474035091081114
-2.54,0.001321982694570227,-0.02602740608054675
-2.53875,-0.0003508453053725187,0.02490980985022969
-2.5375,-0.002692804505292362,0.08288440429775815
-2.53625,-0.00336193570526946,0.09695916133126216
-2.535,-0.002692804505292362,0.07685236556911357
-2.53375,-0.002023673305315264,0.05372955044264268
-2.5325,-0.001354542105338166,0.0376441138329238
-2.53125,-0.0006854109053610678,0.01686709154537025
-2.53,0.001991113894547325,-0.05752805277457955
-2.52875,0.00366394189449007,-0.1024332299767114
-2.5275,0.002994810694512972,-0.08366688726537272
-2.52625,0.002325679494535874,-0.05920361908809193
-2.525,0.001991113894547325,-0.04043727637675324
-2.52375,0.001656548294558776,-0.03038387849567895
-2.5225,0.0006528514945931285,-0.0008939113778610051
-2.52125,-0.002023673305315264,0.06813942073884917
-2.52,-0.00336193570526946,0.09595382154315472
-2.51875,-0.003027370105280911,0.0835546308231631
-2.5175,-0.002023673305315264,0.06043181569669221
-2.51625,-0.001689107705326715,0.042000586248056
-2.515,-0.001019976505349617,0.02926628226536189
-2.51375,0.0009874170945816775,-0.0323945580718938
-2.5125,0.00366394189449007,-0.09740653103617426
-2.51125,0.00366394189449007,-0.09372028514644702
-2.51,0.002660245094524423,-0.06791656391835632
-2.50875,0.001991113894547325,-0.04646931510539782
-2.5075,0.001656548294558776,-0.03339989786000123
-2.50625,0.0009874170945816775,-0.01831980103838979
-2.505,-0.001354542105338166,0.04870285150210553
-2.50375,-0.003027370105280911,0.09159734912802253
-2.5025,-0.00336193570526946,0.09092712260261758
-2.50125,-0.002358238905303813,0.06713408095074173
-2.5,-0.001689107705326715,0.04602194540048572
-2.49875,-0.001354542105338166,0.03295252815508913
-2.4975,-1.627970538396967e-05,-0.005920610318398154
-2.49625,0.002994810694512972,-0.08232643421456282
-2.495,0.00366394189449007,-0.1010927769259015
-2.49375,0.002994810694512972,-0.07595928222321575
-2.4925,0.002325679494535874,-0.0525013538340424
-2.49125,0.001656548294558776,-0.03574569069891857
-2.49,0.001656548294558776,-0.0266976326059517
-2.48875,-0.0003508453053725187,0.02457469658752721
-2.4875,-0.002692804505292362,0.08254929103505566
-2.48625,-0.00336193570526946,0.09595382154315472
-2.485,-0.002692804505292362,0.07584702578100613
-2.48375,-0.002023673305315264,0.0533944371799402
-2.4825,-0.001354542105338166,0.03730900057022132
-2.48125,-0.0006854109053610678,0.0161968650199653
-2.48,0.001991113894547325,-0.05853339256268698
-2.47875,0.00366394189449007,-0.1027683432394139
-2.4775,0.003329376294501521,-0.0840020005280752
-2.47625,0.002325679494535874,-0.05886850582538945
-2.475,0.001991113894547325,-0.04043727637675324
-2.47375,0.001656548294558776,-0.03004876523297647
-2.4725,0.0003182858946045794,-0.000223684852456052
-2.47125,-0.002023673305315264,0.06847453400155165
-2.47,-0.00336193570526946,0.09561870828045226
-2.46875,-0.003027370105280911,0.0835546308231631
-2.4675,-0.002358238905303813,0.05976158917128726
-2.46625,-0.001689107705326715,0.04166547298535352
-2.465,-0.001354542105338166,0.02826094247725446
-2.46375,0.0009874170945816775,-0.03373501112270371
-2.4625,0.00366394189449007,-0.09807675756157921
-2.46125,0.00366394189449007,-0.09372028514644702
-2.46,0.002660245094524423,-0.06724633739295137
-2.45875,0.001991113894547325,-0.04579908857999287
-2.4575,0.001656548294558776,-0.03306478459729876
-2.45625,0.0009874170945816775,-0.01798468777568731
-2.455,-0.001354542105338166,0.04870285150210553
-2.45375,-0.003027370105280911,0.09159734912802253
-2.4525,-0.003027370105280911,0.09126223586532005
-2.45125,-0.002358238905303813,0.06813942073884917
-2.45,-0.001689107705326715,0.0476975117139981
-2.44875,-0.001354542105338166,0.03395786794319656
-2.4475,-1.627970538396967e-05,-0.005585497055695677
-2.44625,0.002994810694512972,-0.08165620768915786
-2.445,0.00366394189449007,-0.1000874371377941
-2.44375,0.002994810694512972,-0.07495394243510833
-2.4425,0.002325679494535874,-0.05116090078323249
-2.44125,0.001656548294558776,-0.03574569069891857
-2.44,0.001321982694570227,-0.02636251934324923
-2.43875,-0.0003508453053725187,0.02558003637563465
-2.4375,-0.002692804505292362,0.08254929103505566
-2.43625,-0.00336193570526946,0.09561870828045226
-2.435,-0.002692804505292362,0.07517679925560118
-2.43375,-0.002023673305315264,0.05305932391723772
-2.4325,-0.001354542105338166,0.03730900057022132
-2.43125,-0.0006854109053610678,0.01552663849456035
-2.43,0.001991113894547325,-0.05920361908809193
-2.42875,0.00366394189449007,-0.1024332299767114
-2.4275,0.002994810694512972,-0.08366688726537272
-2.42625,0.002325679494535874,-0.05853339256268698
-2.425,0.001991113894547325,-0.04010216311405077
-2.42375,0.001656548294558776,-0.02971365197027399
-2.4225,0.0003182858946045794,0.001116768198353854
-2.42125,-0.002023673305315264,0.06947987378965907
-2.42,-0.00336193570526946,0.09662404806855968
-2.41875,-0.003027370105280911,0.0835546308231631
-2.4175,-0.002358238905303813,0.06009670243398973
-2.41625,-0.001689107705326715,0.042000586248056
-2.415,-0.001019976505349617,0.02826094247725446
-2.41375,0.001321982694570227,-0.03373501112270371
-2.4125,0.00366394189449007,-0.09673630451076931
-2.41125,0.003329376294501521,-0.09237983209563712
-2.41,0.002660245094524423,-0.06590588434214147
-2.40875,0.001991113894547325,-0.04479374879188544
-2.4075,0.001656548294558776,-0.0323945580718938
-2.40625,0.0009874170945816775,-0.01664423472487741
-2.405,-0.001354542105338166,0.04970819129021296
-2.40375,-0.003027370105280911,0.09193246239072501
-2.4025,-0.00336193570526946,0.09092712260261758
-2.40125,-0.002358238905303813,0.06746919421344422
-2.4,-0.001689107705326715,0.04736239845129563
-2.39875,-0.001354542105338166,0.03395786794319656
-2.3975,-1.627970538396967e-05,-0.006255723581100631
-2.39625,0.002994810694512972,-0.08232643421456282
-2.395,0.00366394189449007,-0.1000874371377941
-2.39375,0.002994810694512972,-0.0752890556978108
-2.3925,0.002325679494535874,-0.05183112730863745
-2.39125,0.001656548294558776,-0.03641591722432352
-2.39,0.001321982694570227,-0.02703274586865418
-2.38875,-0.0006854109053610678,0.02524492311293217
-2.3875,-0.002692804505292362,0.08221417777235318
-2.38625,-0.00336193570526946,0.0949484817550473
-2.385,-0.002692804505292362,0.07417145946749375
-2.38375,-0.002023673305315264,0.05205398412913029
-2.3825,-0.001354542105338166,0.0363036607821139
-2.38125,-0.0006854109053610678,0.01418618544375044
-2.38,0.001991113894547325,-0.06087918540160431
-2.37875,0.00366394189449007,-0.1037736830275213
-2.3775,0.003329376294501521,-0.08433711379077767
-2.37625,0.002325679494535874,-0.05886850582538945
-2.375,0.001991113894547325,-0.04077238963945572
-2.37375,0.001656548294558776,-0.03071899175838142
-2.3725,0.0003182858946045794,0.0001114284102464246
-2.37125,-0.002023673305315264,0.06880964726425412
-2.37,-0.00336193570526946,0.09561870828045226
-2.36875,-0.003027370105280911,0.08288440429775815
-2.3675,-0.002023673305315264,0.05976158917128726
-2.36625,-0.001689107705326715,0.04133035972265105
-2.365,-0.001019976505349617,0.02826094247725446
-2.36375,0.001321982694570227,-0.03474035091081114
-2.3625,0.00366394189449007,-0.09874698408698417
-2.36125,0.003329376294501521,-0.09372028514644702
-2.36,0.002660245094524423,-0.06758145065565384
-2.35875,0.001991113894547325,-0.04646931510539782
-2.3575,0.001656548294558776,-0.03407012438540619
-2.35625,0.0009874170945816775,-0.01831980103838979
-2.355,-0.001354542105338166,0.04870285150210553
-2.35375,-0.003027370105280911,0.09092712260261758
-2.3525,-0.00336193570526946,0.08958666955180768
-2.35125,-0.002358238905303813,0.06612874116263431
-2.35,-0.001689107705326715,0.04602194540048572
-2.34875,-0.001354542105338166,0.03328764141779161
-2.3475,0.0003182858946045794,-0.00726106336920806
-2.34625,0.002994810694512972,-0.08299666073996777
-2.345,0.00366394189449007,-0.1004225504004966
-2.34375,0.002994810694512972,-0.0752890556978108
-2.3425,0.002325679494535874,-0.05183112730863745
-2.34125,0.001656548294558776,-0.03641591722432352
-2.34,0.001656548294558776,-0.02736785913135666
-2.33875,-0.0003508453053725187,0.02558003637563465
-2.3375,-0.002692804505292362,0.08221417777235318
-2.33625,-0.00336193570526946,0.09528359501774977
-2.335,-0.002692804505292362,0.0748416859928987
-2.33375,-0.002023673305315264,0.05272421065453525
-2.3325,-0.001354542105338166,0.03697388730751885
-2.33125,-0.0006854109053610678,0.01485641196915539
-2.33,0.001991113894547325,-0.06020895887619936
-2.32875,0.00366394189449007,-0.1037736830275213
-2.3275,0.003329376294501521,-0.08467222705348015
-2.32625,0.002325679494535874,-0.05886850582538945
-2.325,0.001991113894547325,-0.04077238963945572
-2.32375,0.001656548294558776,-0.03038387849567895
-2.3225,0.0003182858946045794,0.0007816549356513777
-2.32125,-0.002023673305315264,0.06947987378965907
-2.32,-0.00336193570526946,0.09561870828045226
-2.31875,-0.003027370105280911,0.08221417777235318
-2.3175,-0.002358238905303813,0.05875624938317982
-2.31625,-0.001689107705326715,0.04066013319724609
-2.315,-0.001019976505349617,0.0275907159518495
-2.31375,0.001321982694570227,-0.03474035091081114
-2.3125,0.00366394189449007,-0.09740653103617426
-2.31125,0.003329376294501521,-0.09271494535833959
-2.31,0.002660245094524423,-0.06657611086754642
-2.30875,0.001991113894547325,-0.04613420184269534
-2.3075,0.001656548294558776,-0.03339989786000123
-2.30625,0.0009874170945816775,-0.01764957451298483
-2.305,-0.001354542105338166,0.04970819129021296
-2.30375,-0.003027370105280911,0.09126223586532005
-2.3025,-0.003027370105280911,0.08891644302640273
-2.30125,-0.002358238905303813,0.06612874116263431
-2.3,-0.001689107705326715,0.04602194540048572
-2.29875,-0.001354542105338166,0.03261741489238665
-2.2975,0.0003182858946045794,-0.008266403157315489
-2.29625,0.002994810694512972,-0.08433711379077767
-2.295,0.00366394189449007,-0.1010927769259015
-2.29375,0.002994810694512972,-0.07562416896051329
-2.2925,0.002325679494535874,-0.05183112730863745
-2.29125,0.001656548294558776,-0.03608080396162105
-2.29,0.001321982694570227,-0.02736785913135666
-2.28875,-0.0006854109053610678,0.02591514963833712
-2.2875,-0.002692804505292362,0.08321951756046062
-2.28625,-0.00336193570526946,0.0949484817550473
-2.285,-0.002692804505292362,0.07450657273019623
-2.28375,-0.001689107705326715,0.05205398412913029
-2.2825,-0.001354542105338166,0.03697388730751885
-2.28125,-0.0006854109053610678,0.01385107218104796
-2.28,0.002325679494535874,-0.06188452518971174
-2.27875,0.00366394189449007,-0.1034385697648188
-2.2775,0.003329376294501521,-0.08333177400267025
-2.27625,0.002325679494535874,-0.0581982792999845
-2.275,0.001991113894547325,-0.03976704985134829
-2.27375,0.001656548294558776,-0.03004876523297647
-2.2725,0.0003182858946045794,0.002122107986461284
-2.27125,-0.002023673305315264,0.07015010031506402
-2.27,-0.00336193570526946,0.09595382154315472
-2.26875,-0.003027370105280911,0.08254929103505566
-2.2675,-0.002023673305315264,0.05875624938317982
-2.26625,-0.001354542105338166,0.04066013319724609
-2.265,-0.001019976505349617,0.02692048942644455
-2.26375,0.001321982694570227,-0.03708614374972848
-2.2625,0.00366394189449007,-0.09941721061238912
-2.26125,0.003329376294501521,-0.09237983209563712
-2.26,0.002660245094524423,-0.06691122413024889
-2.25875,0.001991113894547325,-0.04546397531729039
-2.2575,0.001656548294558776,-0.03306478459729876
-2.25625,0.0009874170945816775,-0.01697934798757988
-2.255,-0.001354542105338166,0.05071353107832039
-2.25375,-0.003027370105280911,0.09226757565342748
-2.2525,-0.003027370105280911,0.09025689607721263
-2.25125,-0.002358238905303813,0.06713408095074173
-2.25,-0.001689107705326715,0.04669217192589067
-2.24875,-0.001354542105338166,0.03395786794319656
-2.2475,-1.627970538396967e-05,-0.007596176631910537
-2.24625,0.002994810694512972,-0.08232643421456282
-2.245,0.00366394189449007,-0.0997523238750916
-2.24375,0.002994810694512972,-0.07461882917240585
-2.2425,0.002325679494535874,-0.05116090078323249
-2.24125,0.001656548294558776,-0.03574569069891857
-2.24,0.001321982694570227,-0.02703274586865418
-2.23875,-0.0006854109053610678,0.02692048942644455
-2.2375,-0.002692804505292362,0.08321951756046062
-2.23625,-0.003027370105280911,0.09528359501774977
-2.235,-0.002692804505292362,0.07417145946749375
-2.23375,-0.002023673305315264,0.05205398412913029
-2.2325,-0.001354542105338166,0.03663877404481637
-2.23125,-0.0006854109053610678,0.01351595891834549
-2.23,0.002325679494535874,-0.06188452518971174
-2.22875,0.00366394189449007,-0.1037736830275213
-2.2275,0.002994810694512972,-0.08433711379077767
-2.22625,0.002325679494535874,-0.05886850582538945
-2.225,0.001656548294558776,-0.04043727637675324
-2.22375,0.001656548294558776,-0.03071899175838142
-2.2225,0.0003182858946045794,0.002122107986461284
-2.22125,-0.002358238905303813,0.06981498705236155
-2.22,-0.00336193570526946,0.09561870828045226
-2.21875,-0.003027370105280911,0.08187906450965071
-2.2175,-0.002023673305315264,0.05875624938317982
-2.21625,-0.001689107705326715,0.04099524645994856
-2.215,-0.001019976505349617,0.02792582921455198
-2.21375,0.0009874170945816775,-0.03541057743621609
-2.2125,0.003329376294501521,-0.09740653103617426
-2.21125,0.003329376294501521,-0.09204471883293464
-2.21,0.002660245094524423,-0.06590588434214147
-2.20875,0.001991113894547325,-0.04546397531729039
-2.2075,0.001656548294558776,-0.03272967133459628
-2.20625,0.0009874170945816775,-0.01664423472487741
-2.205,-0.001354542105338166,0.05104864434102287
-2.20375,-0.003027370105280911,0.09260268891612997
-2.2025,-0.003027370105280911,0.08958666955180768
-2.20125,-0.002358238905303813,0.06679896768803927
-2.2,-0.001689107705326715,0.04635705866318819
-2.19875,-0.001354542105338166,0.03362275468049408
-2.1975,-1.627970538396967e-05,-0.006925950106505584
-2.19625,0.002994810694512972,-0.08199132095186033
-2.195,0.00366394189449007,-0.0997523238750916
-2.19375,0.002994810694512972,-0.07461882917240585
-2.1925,0.001991113894547325,-0.05149601404593497
