#Digilent WaveForms Oscilloscope Acquisition
#Device Name: Discovery
#Serial Number: SN:210244566833
#Date Time: 2019-07-15 10:40:03.508
#Sample rate: 800Hz
#Samples: 8192
#Trigger: Source: Channel 1 Type: Edge Condition: Rising Level: 0 V Hyst.: Auto HoldOff: 0 s
#Channel 1: Range: 500 mV/div Offset: 0 V Attenuation: 1 X
#Channel 2: Range: 200 mV/div Offset: 0 V Attenuation: 1 X
#Power Supplies: ON
#Positive Supply: ON
#Negative Supply: ON

Time (s),Channel 1 (V),Channel 2 (V)
-5.12,0.002660245094524423,-0.06758145065565384
-5.11875,0.001991113894547629,-0.05116090078323996
-5.1175,0.001321982694570227,-0.02937853870757151
-5.11625,0.0003182858946045794,-0.001564137903265958
-5.115,-0.0006854109053610678,0.02390447006212226
-5.11375,-0.001354542105338318,0.04200058624806133
-5.1125,-0.001689107705326715,0.05372955044264268
-5.11125,-0.002023673305315264,0.06110204222209716
-5.11,-0.001689107705326867,0.04635705866319489
-5.10875,-0.0006854109053607635,0.0218937904858943
-5.1075,-1.627970538396967e-05,-0.006925950106505584
-5.10625,0.0009874170945816775,-0.03038387849567895
-5.105,0.001656548294558471,-0.04512886205458121
-5.10375,0.002325679494535874,-0.06523565781673651
-5.1025,0.001991113894547325,-0.05752805277457955
-5.10125,0.001656548294558776,-0.03574569069891857
-5.1,0.000652851494592672,-0.009606856208112899
-5.09875,-0.0003508453053725187,0.01787243133347768
-5.0975,-0.001019976505349617,0.03831434035832876
-5.09625,-0.001689107705326411,0.05071353107831475
-5.095,-0.002358238905303813,0.06244249527290707
-5.09375,-0.002023673305315264,0.05406466370534516
-5.0925,-0.001354542105338166,0.0319471883669817
-5.09125,-0.0003508453053720623,0.003127447774556827
-5.09,0.0006528514945931285,-0.02301138671622446
-5.08875,0.001656548294558776,-0.04144261616486067
-5.0875,0.002325679494535569,-0.05953873235078617
-5.08625,0.002660245094524423,-0.06423031802862908
-5.085,0.001656548294558776,-0.04378840900377801
-5.08375,0.0009874170945816775,-0.01966025408919969
-5.0825,-1.62797053844261e-05,0.008154146715116682
-5.08125,-0.001019976505349617,0.0319471883669817
-5.08,-0.001689107705326715,0.04702728518859314
-5.07875,-0.002023673305315112,0.05909136264587681
-5.0775,-0.00202367330531496,0.05875624938317098
-5.07625,-0.001354542105338166,0.03931968014643619
-5.075,-0.0006854109053610678,0.01318084565564301
-5.07375,0.000318285894604123,-0.01463355514864989
-5.0725,0.001321982694570227,-0.03574569069891857
-5.07125,0.001991113894547325,-0.05216624057133992
-5.07,0.002325679494535874,-0.06724633739295137
-5.06875,0.00199111389454702,-0.05116090078322244
-5.0675,0.001321982694570227,-0.02904342544486904
-5.06625,0.0003182858946045794,-0.001229024640563482
-5.065,-0.0006854109053606114,0.02423958332481316
-5.06375,-0.001354542105338166,0.042000586248056
-5.0625,-0.002023673305315264,0.05372955044264268
-5.06125,-0.002358238905303813,0.06043181569669221
-5.06,-0.002023673305314808,0.04535171887506964
-5.05875,-0.001019976505349617,0.02088845069779997
-5.0575,-1.627970538396967e-05,-0.008601516420017967
-5.05625,0.0009874170945812211,-0.03172433154647833
-5.055,0.001656548294558776,-0.04814488141891021
-5.05375,0.002660245094524423,-0.06791656391835632
-5.0525,0.002325679494535874,-0.05987384561349688
-5.05125,0.001656548294558319,-0.03842659680052634
-5.05,0.0006528514945931285,-0.01195264904704273
-5.04875,-0.0003508453053725187,0.01552663849456035
-5.0475,-0.001019976505349312,0.03630366078210445
-5.04625,-0.001689107705327019,0.04903796476481288
-5.045,-0.002358238905303813,0.05976158917128726
-5.04375,-0.002023673305315264,0.05171887086642782
-5.0425,-0.00135454210533847,0.02993650879077675
-5.04125,-1.627970538396967e-05,0.001116768198353854
-5.04,0.0006528514945931285,-0.02368161324162941
-5.03875,0.001321982694570227,-0.04211284269026563
-5.0375,0.002325679494535874,-0.06121429866430892
-5.03625,0.002325679494535874,-0.06590588434214147
-5.035,0.001656548294558776,-0.04546397531729039
-5.03375,0.000987417094581982,-0.02167093366542537
-5.0325,-1.627970538396967e-05,0.006813693664295956
-5.03125,-0.001019976505349617,0.03060673531617179
-5.03,-0.001689107705326715,0.04568683213778324
-5.02875,-0.002023673305315264,0.05741579633236962
-5.0275,-0.002023673305315264,0.05674556980696497
-5.02625,-0.001354542105338166,0.03730900057022132
-5.025,-0.0003508453053729752,0.00982971302863074
-5.02375,0.0006528514945931285,-0.01798468777568731
-5.0225,0.001321982694570227,-0.03842659680053838
-5.02125,0.001991113894547325,-0.05417692014755478
-5.02,0.002660245094524118,-0.06892190370645614
-5.01875,0.001991113894547325,-0.05216624057133992
-5.0175,0.001321982694570227,-0.02937853870757151
-5.01625,0.0003182858946050358,-0.001564137903278608
-5.015,-0.0006854109053613721,0.02457469658753514
-5.01375,-0.001354542105338166,0.042000586248056
-5.0125,-0.002023673305315264,0.05406466370534516
-5.01125,-0.002358238905303661,0.06043181569668932
-5.01,-0.001689107705326715,0.04568683213778324
-5.00875,-0.001019976505349617,0.02122356396050245
-5.0075,0.0003182858946045794,-0.007596176631910537
-5.00625,0.0009874170945819818,-0.03071899175838873
-5.005,0.001656548294558776,-0.0468044283681003
-5.00375,0.002660245094524423,-0.06657611086754642
-5.0025,0.002325679494536026,-0.05886850582539296
-5.00125,0.001656548294558776,-0.03641591722432352
-5,0.0006528514945931285,-0.009941969470827873
-4.99875,-0.0003508453053725187,0.01686709154537025
-4.9975,-0.001019976505349921,0.03764411383292929
-4.99625,-0.001689107705326715,0.04970819129021296
-4.995,-0.002023673305315264,0.06076692895939469
-4.99375,-0.002023673305315264,0.05205398412913426
-4.9925,-0.001019976505349617,0.02960139552806436
-4.99125,-1.627970538396967e-05,0.001451881461056331
-4.99,0.0009874170945816775,-0.02368161324162941
-4.98875,0.00165654829455908,-0.04211284269027416
-4.9875,0.002325679494535874,-0.06087918540160431
-4.98625,0.002660245094524423,-0.06523565781673651
-4.985,0.001991113894547629,-0.04378840900378776
-4.98375,0.0009874170945812211,-0.0196602540891872
-4.9825,-1.627970538396967e-05,0.007819033452403385
-4.98125,-0.001019976505349617,0.03127696184157674
-4.98,-0.001354542105338014,0.04635705866318134
-4.97875,-0.002023673305315264,0.05842113612047735
-4.9775,-0.002023673305315264,0.0577509095950724
-4.97625,-0.001354542105338166,0.03864945362103123
-4.975,-0.0003508453053720623,0.01150527934211798
-4.97375,0.0006528514945931285,-0.01630912146217493
-4.9725,0.001321982694570227,-0.036751030487026
-4.97125,0.00199111389454702,-0.05350669362214221
-4.97,0.002660245094524423,-0.06758145065565384
-4.96875,0.001991113894547325,-0.05082578752053002
-4.9675,0.001321982694570227,-0.02870831218216656
-4.96625,0.000318285894604123,-0.001229024640551747
-4.965,-0.0006854109053610678,0.02457469658752721
-4.96375,-0.001354542105338166,0.04267081277346095
-4.9625,-0.001689107705326563,0.0543997769680423
-4.96125,-0.002023673305315264,0.06076692895939469
-4.96,-0.001689107705326715,0.04602194540048572
-4.95875,-0.0006854109053610678,0.0218937904859074
-4.9575,0.0003182858946048837,-0.006925950106516403
-4.95625,0.0009874170945816775,-0.03071899175838142
-4.955,0.001656548294558776,-0.04747465489350525
-4.95375,0.002660245094523966,-0.06724633739294238
-4.9525,0.002325679494535569,-0.05853339256267722
-4.95125,0.001656548294558776,-0.03708614374972848
-4.95,0.0006528514945931285,-0.01061219599623283
-4.94875,-1.627970538366533e-05,0.01720220480806008
-4.9475,-0.001019976505349617,0.0376441138329238
-4.94625,-0.001689107705326715,0.05037841781561792
-4.945,-0.002358238905303813,0.06110204222209716
-4.94375,-0.002023673305314808,0.05272421065452534
-4.9425,-0.001019976505349617,0.03094184857887427
-4.94125,-1.627970538396967e-05,0.002792334511866237
-4.94,0.0006528514945928241,-0.0226762734535104
-4.93875,0.001656548294558776,-0.04144261616486067
-4.9375,0.002325679494535874,-0.06020895887619936
-4.93625,0.002325679494535874,-0.06456543129133155
-4.935,0.001991113894546869,-0.04378840900376704
-4.93375,0.0009874170945816775,-0.01966025408919969
-4.9325,-1.627970538396967e-05,0.008824373240510816
-4.93125,-0.0006854109053607635,0.03194718836697118
-4.93,-0.001354542105338166,0.04702728518859314
-4.92875,-0.002023673305315264,0.05875624938317982
-4.9275,-0.002358238905303813,0.05808602285777487
-4.92625,-0.00135454210533771,0.03965479340912632
-4.925,-0.0003508453053725187,0.01251061913023806
-4.92375,0.0006528514945931285,-0.0153037816740675
-4.9225,0.001321982694569922,-0.0360808039616116
-4.92125,0.001991113894547629,-0.05350669362215668
-4.92,0.002660245094524423,-0.06858679044376127
-4.91875,0.001991113894547325,-0.05116090078323249
-4.9175,0.001321982694570531,-0.02870831218217677
-4.91625,0.0003182858946045794,-0.0008939113778610051
-4.915,-0.0006854109053610678,0.02490980985022969
-4.91375,-0.001354542105338166,0.04300592603616343
-4.9125,-0.001689107705327019,0.0540646637053482
-4.91125,-0.002358238905303813,0.06076692895939469
-4.91,-0.001689107705326715,0.04602194540048572
-4.90875,-0.0006854109053615243,0.02189379048591837
-4.9075,-1.627970538396967e-05,-0.00726106336920806
-4.90625,0.0009874170945816775,-0.0310541050210839
-4.905,0.001656548294558776,-0.04713954163080277
-4.90375,0.002660245094524271,-0.0672463373929474
-4.9025,0.002325679494535874,-0.05853339256268698
-4.90125,0.001656548294558776,-0.03742125701243095
-4.9,0.0006528514945935849,-0.01027708273354269
-4.89875,-0.0003508453053725187,0.01753731807077521
-4.8975,-0.001019976505349617,0.03831434035832876
-4.89625,-0.001689107705326715,0.05104864434102287
-4.895,-0.002358238905303661,0.061772268747498
-4.89375,-0.002023673305315264,0.05272421065453525
-4.8925,-0.001019976505349617,0.03060673531617179
-4.89125,-1.627970538442612e-05,0.002457221249176564
-4.89,0.0009874170945818298,-0.02334649997893517
-4.88875,0.001321982694570227,-0.04144261616486067
-4.8875,0.002325679494535874,-0.06087918540160431
-4.88625,0.002325679494535874,-0.06389520476592522
-4.885,0.001991113894547325,-0.04345329574107553
-4.88375,0.0009874170945816775,-0.01932514082649722
-4.8825,-1.627970538396967e-05,0.008824373240510816
-4.88125,-0.0006854109053613721,0.03228230162969088
-4.88,-0.001354542105338166,0.04702728518859314
-4.87875,-0.002023673305315264,0.05842113612047735
-4.8775,-0.002023673305315264,0.0577509095950727
-4.87625,-0.001354542105338166,0.03864945362103123
-4.875,-0.0003508453053725187,0.01217550586753558
-4.87375,0.0006528514945931285,-0.01563889493676997
-4.8725,0.001321982694570531,-0.03675103048703347
-4.87125,0.001991113894547325,-0.05317158035944735
-4.87,0.002660245094524423,-0.06758145065565384
-4.86875,0.001991113894547629,-0.05149601404594228
-4.8675,0.001321982694570227,-0.02904342544486904
-4.86625,0.0003182858946045794,-0.0008939113778610051
-4.865,-0.0006854109053610678,0.02457469658752721
-4.86375,-0.001354542105338318,0.04233569951076381
-4.8625,-0.001689107705326715,0.05406466370534516
-4.86125,-0.002023673305315264,0.06043181569669221
-4.86,-0.001689107705326867,0.04535171887508762
-4.85875,-0.0006854109053606114,0.02155867722319197
-4.8575,0.0003182858946045794,-0.006925950106505584
-4.85625,0.0009874170945816775,-0.03038387849567895
-4.855,0.001991113894546868,-0.04646931510539051
-4.85375,0.002660245094524423,-0.06724633739295137
-4.8525,0.002325679494535874,-0.05853339256268698
-4.85125,0.001656548294558776,-0.036751030487026
-4.85,0.000652851494592672,-0.010277082733518
-4.84875,-0.0003508453053725187,0.01686709154537025
-4.8475,-0.001019976505349617,0.0376441138329238
-4.84625,-0.001689107705326411,0.05037841781561213
-4.845,-0.002023673305315264,0.06076692895939469
-4.84375,-0.001689107705326715,0.05238909739183277
-4.8425,-0.001019976505349617,0.03027162205346932
-4.84125,-1.627970538351324e-05,0.002457221249152484
-4.84,0.0009874170945816775,-0.0223411601908195
-4.83875,0.001656548294558776,-0.04077238963945572
-4.8375,0.002325679494535569,-0.06054407213889285
-4.83625,0.002325679494535874,-0.0638952047659266
-4.835,0.001991113894547325,-0.0424479559529681
-4.83375,0.0009874170945816775,-0.01798468777568731
-4.8325,-1.627970538427396e-05,0.01016482629133139
-4.83125,-0.0006854109053610678,0.03362275468049408
-4.83,-0.001354542105338166,0.04836773823940305
-4.82875,-0.00202367330531496,0.0600967024339844
-4.8275,-0.00202367330531496,0.05942647590857594
-4.82625,-0.001354542105338166,0.03998990667184114
-4.825,-0.0003508453053725187,0.01251061913023806
-4.82375,0.000652851494592672,-0.01530378167405485
-4.8225,0.001321982694570227,-0.03541057743621609
-4.82125,0.001991113894547325,-0.05216624057133992
-4.82,0.002660245094524423,-0.06724633739295137
-4.81875,0.00199111389454702,-0.05049067425781718
-4.8175,0.001321982694570227,-0.02770297239405913
-4.81625,0.0003182858946045794,0.0007816549356513777
-4.815,-0.0006854109053606114,0.02625026290102802
-4.81375,-0.001354542105338166,0.04401126582427085
-4.8125,-0.001689107705326715,0.05574023001885754
-4.81125,-0.002358238905303813,0.06210738201020459
-4.81,-0.001689107705326411,0.04702728518858217
-4.80875,-0.001019976505349617,0.02289913027401483
-4.8075,-1.627970538396967e-05,-0.006590836843803107
-4.80625,0.0009874170945812211,-0.03038387849566812
-4.805,0.001656548294558776,-0.04646931510539782
-4.80375,0.002660245094524423,-0.06657611086754642
-4.8025,0.002325679494535874,-0.05752805277457955
-4.80125,0.001656548294558319,-0.03641591722431133
-4.8,0.0006528514945931285,-0.009606856208125396
-4.79875,-0.0003508453053725187,0.01720220480807273
-4.7975,-0.001019976505349312,0.03797922709561682
-4.79625,-0.001689107705327019,0.05004330455292046
-4.795,-0.002358238905303813,0.06110204222209716
-4.79375,-0.002023673305315264,0.05205398412913029
-4.7925,-0.001019976505350073,0.02960139552807457
-4.79125,-1.627970538396967e-05,0.0004465416729489012
-4.79,0.0009874170945816775,-0.02435183976703437
-4.78875,0.001656548294558776,-0.04278306921567058
-4.7875,0.002660245094524423,-0.06356009150322504
-4.78625,0.002660245094524423,-0.06557077107943898
-4.785,0.001991113894547325,-0.04412352226648048
-4.78375,0.000987417094582134,-0.01966025408921082
-4.7825,-1.627970538396967e-05,0.008824373240510816
-4.78125,-0.001019976505349617,0.0319471883669817
-4.78,-0.001354542105338166,0.04702728518859314
-4.77875,-0.002023673305315264,0.0584211361204772
-4.7775,-0.002023673305315264,0.05808602285777487
-4.77625,-0.001354542105338166,0.03864945362103123
-4.775,-0.0003508453053729752,0.0118403926048453
-4.77375,0.0006528514945931285,-0.01563889493676997
-4.7725,0.001321982694570227,-0.03708614374972848
-4.77125,0.001991113894547325,-0.05484714667295974
-4.77,0.002660245094524118,-0.06892190370645553
-4.76875,0.001991113894547325,-0.05082578752053002
-4.7675,0.001321982694570227,-0.02837319891946408
-4.76625,0.0003182858946050358,-0.0002236848524688542
-4.765,-0.0006854109053613721,0.02558003637564257
-4.76375,-0.001354542105338166,0.04300592603616343
-4.7625,-0.001689107705326715,0.05507000349345258
-4.76125,-0.002358238905303509,0.06177226874749907
-4.76,-0.001689107705326715,0.04602194540048572
-4.75875,-0.001019976505349617,0.02222890374860988
-4.7575,0.0003182858946045794,-0.00726106336920806
-4.75625,0.0009874170945819818,-0.03071899175838873
-4.755,0.001656548294558776,-0.0468044283681003
-4.75375,0.002660245094524423,-0.06691122413024889
-4.7525,0.002325679494536026,-0.05752805277458382
-4.75125,0.001656548294558776,-0.03574569069891857
-4.75,0.0006528514945931285,-0.008936629682720442
-4.74875,-0.0003508453053725187,0.01854265785888264
-4.7475,-0.001019976505349921,0.03898456688373935
-4.74625,-0.001689107705326715,0.05138375760372534
-4.745,-0.002358238905303813,0.06210738201020459
-4.74375,-0.002023673305315416,0.05305932391724184
-4.7425,-0.001354542105338166,0.03094184857887427
-4.74125,-0.0003508453053725187,0.002457221249163761
-4.74,0.0006528514945931285,-0.02267627345352198
-4.73875,0.001321982694570683,-0.04144261616486966
-4.7375,0.002325679494535874,-0.06121429866430679
-4.73625,0.002325679494535874,-0.06322497824052165
-4.735,0.00165654829455908,-0.04211284269027522
-4.73375,0.0009874170945812211,-0.01798468777567451
-4.7325,-1.627970538396967e-05,0.01016482629132072
-4.73125,-0.001019976505349617,0.03328764141779161
-4.73,-0.001689107705326411,0.04803262497669387
-4.72875,-0.002023673305315264,0.05976158917128726
-4.7275,-0.002358238905303813,0.05875624938317982
-4.72625,-0.001354542105338166,0.03898456688373371
-4.725,-0.0006854109053606114,0.01217550586752278
-4.72375,0.0003182858946045794,-0.01597400819947245
-4.7225,0.001321982694570227,-0.03641591722432352
-4.72125,0.00199111389454702,-0.05317158035943973
-4.72,0.002660245094524423,-0.06724633739295137
-4.71875,0.001991113894547325,-0.05015556099512506
-4.7175,0.001321982694570227,-0.0266976326059517
-4.71625,0.000318285894604123,0.00145188146106776
-4.715,-0.0006854109053610678,0.02658537616374208
-4.71375,-0.001354542105338166,0.04468149234967581
-4.7125,-0.00202367330531496,0.0557402300188525
-4.71125,-0.002358238905303813,0.06177226874750211
-4.71,-0.002023673305315264,0.04635705866318819
-4.70875,-0.001019976505349617,0.02222890374860988
-4.7075,-1.627970538351324e-05,-0.006590836843813775
-4.70625,0.0009874170945816775,-0.03004876523297647
-4.705,0.001656548294558776,-0.04613420184269534
-4.70375,0.002325679494535569,-0.06590588434213247
-4.7025,0.001991113894547173,-0.05752805277456979
-4.70125,0.001656548294558776,-0.03608080396162105
-4.7,0.0006528514945931285,-0.00927174294542292
-4.69875,-0.0003508453053720623,0.01787243133346534
-4.6975,-0.001354542105338166,0.03831434035832876
-4.69625,-0.001689107705326715,0.05071353107832039
-4.695,-0.002358238905303813,0.06110204222209716
-4.69375,-0.00202367330531496,0.05171887086641791
-4.6925,-0.001354542105338166,0.02993650879076684
-4.69125,-0.0003508453053725187,0.001116768198353854
-4.69,0.000652851494592672,-0.02502206629242743
-4.68875,0.001321982694570227,-0.04278306921567058
-4.6875,0.002325679494535874,-0.06221963845241422
-4.68625,0.002325679494535874,-0.06523565781673651
-4.685,0.001991113894546869,-0.04479374879187432
-4.68375,0.0009874170945816775,-0.02033048061460465
-4.6825,-1.627970538396967e-05,0.008154146715105863
-4.68125,-0.00101997650534916,0.03161207510426855
-4.68,-0.001689107705326715,0.04635705866318819
-4.67875,-0.002023673305315264,0.0577509095950724
-4.6775,-0.002358238905303813,0.05641045654426249
-4.67625,-0.001354542105337862,0.0369738873075065
-4.675,-0.0006854109053610678,0.009829713028618245
-4.67375,0.0006528514945931285,-0.01731446125028236
-4.6725,0.001321982694569922,-0.03809148353782646
-4.67125,0.001991113894547629,-0.05484714667296613
-4.67,0.002660245094524423,-0.06892190370646376
-4.66875,0.001991113894547325,-0.05183112730863745
-4.6675,0.001321982694570531,-0.02937853870758173
-4.66625,0.0003182858946045794,-0.001564137903265958
-4.665,-0.0006854109053610678,0.02423958332482474
-4.66375,-0.001354542105338166,0.042000586248056
-4.6625,-0.001689107705327019,0.05305932391724062
-4.66125,-0.002358238905303813,0.05942647590858478
-4.66,-0.001689107705326715,0.04401126582427085
-4.65875,-0.0006854109053615243,0.01954799764700119
-4.6575,0.0003182858946045794,-0.008936629682720442
-4.65625,0.001321982694570227,-0.03205944480919132
-4.655,0.001656548294558776,-0.04915022120701763
-4.65375,0.002660245094524271,-0.0682516771810547
-4.6525,0.002325679494535874,-0.05920361908809193
-4.65125,0.001656548294558776,-0.03775637027513343
-4.65,0.0006528514945935849,-0.01094730925894749
-4.64875,-0.0003508453053725187,0.01653197828266778
-4.6475,-0.001019976505349617,0.03697388730751885
-4.64625,-0.001689107705326715,0.04937307802751048
-4.645,-0.002023673305315264,0.06009670243398547
-4.64375,-0.002023673305315264,0.05071353107832039
-4.6425,-0.001019976505349617,0.02859605573995693
-4.64125,-1.627970538442612e-05,0.0007816549356640286
-4.64,0.0009874170945819818,-0.02468695302974507
-4.63875,0.001656548294558776,-0.04278306921567058
-4.6375,0.002325679494535874,-0.06188452518971174
-4.63625,0.002660245094524271,-0.06456543129133033
-4.635,0.001991113894547325,-0.04378840900377801
-4.63375,0.0009874170945816775,-0.01932514082649722
-4.6325,-1.627970538396967e-05,0.008824373240510816
-4.63125,-0.001019976505349769,0.03194718836698855
-4.63,-0.001354542105338166,0.04702728518859314
-4.62875,-0.002023673305315264,0.0590913626458823
-4.6275,-0.002023673305315264,0.05708068306966836
-4.62625,-0.001354542105338166,0.0376441138329238
-4.625,-0.0003508453053725187,0.01083505281672567
-4.62375,0.0006528514945931285,-0.01664423472487741
-4.6225,0.001321982694570531,-0.03708614374973609
-4.62125,0.001991113894547325,-0.05384180688485231
-4.62,0.002660245094524423,-0.06791656391835632
-4.61875,0.001991113894547629,-0.05049067425783546
-4.6175,0.001321982694570227,-0.02803808565676161
-4.61625,0.0003182858946045794,0.0001114284102464246
-4.615,-0.0006854109053610678,0.02558003637563465
-4.61375,-0.001354542105338318,0.04334103929887124
-4.6125,-0.001689107705326715,0.05507000349345258
-4.61125,-0.002358238905303813,0.06110204222209716
-4.61,-0.001689107705327019,0.04568683213779025
-4.60875,-0.001019976505349008,0.02122356396048949
-4.6075,0.0003182858946045794,-0.00726106336920806
-4.60625,0.0009874170945816775,-0.03038387849567895
-4.605,0.001656548294558471,-0.04646931510539051
-4.60375,0.002660245094524423,-0.06624099760484393
-4.6025,0.002325679494535874,-0.05685782624917459
-4.60125,0.001656548294558776,-0.03574569069891857
-4.6,0.000652851494592672,-0.008936629682707945
-4.59875,-0.0003508453053725187,0.01854265785888264
-4.5975,-0.001019976505349617,0.03898456688373371
-4.59625,-0.001689107705326411,0.0513837576037197
-4.595,-0.002358238905303813,0.06210738201020459
-4.59375,-0.002023673305315264,0.05305932391723772
-4.5925,-0.001019976505349617,0.03027162205346932
-4.59125,-1.627970538351324e-05,0.001786994723747378
-4.59,0.0009874170945816775,-0.02334649997892694
-4.58875,0.001656548294558776,-0.04177772942756315
-4.5875,0.002325679494535569,-0.05987384561348865
-4.58625,0.002325679494535874,-0.06255475171511669
-4.585,0.001656548294558776,-0.04211284269026563
-4.58375,0.0009874170945816775,-0.01764957451298483
-4.5825,-1.62797053844261e-05,0.01049993955403356
-4.58125,-0.001019976505349617,0.03328764141779161
-4.58,-0.001689107705326715,0.04836773823940305
-4.57875,-0.002023673305315112,0.0587562493831751
-4.5775,-0.00202367330531496,0.05741579633236093
-4.57625,-0.001354542105338166,0.0376441138329238
-4.575,-0.0003508453053725187,0.0104999395540232
-4.57375,0.000652851494592672,-0.01664423472486506
-4.5725,0.001321982694570227,-0.036751030487026
-4.57125,0.001991113894547325,-0.05283646709674487
-4.57,0.002325679494535874,-0.06624099760484393
-4.56875,0.00199111389454702,-0.04948533446970975
-4.5675,0.001321982694570227,-0.0266976326059517
-4.56625,0.0003182858946045794,0.001116768198353854
-4.565,-0.0006854109053606114,0.02625026290102817
-4.56375,-0.001354542105338166,0.04401126582427085
-4.5625,-0.001689107705326715,0.05574023001885754
-4.56125,-0.002358238905303813,0.06143715548479964
-4.56,-0.001689107705326411,0.04568683213777227
-4.55875,-0.001019976505349617,0.02155867722320493
-4.5575,0.0003182858946045794,-0.008266403157315489
-4.55625,0.0009874170945813731,-0.03138921828377586
-4.555,0.001656548294558776,-0.04747465489350525
-4.55375,0.002660245094524423,-0.06724633739295137
-4.5525,0.002325679494535874,-0.05853339256268698
-4.55125,0.001656548294558319,-0.03641591722431118
-4.55,0.0006528514945931285,-0.00927174294542292
-4.54875,-0.0003508453053725187,0.01787243133347768
-4.5475,-0.001019976505349312,0.03831434035831946
-4.54625,-0.001689107705327019,0.05071353107832512
-4.545,-0.002358238905303813,0.06110204222209716
-4.54375,-0.002023673305315264,0.05171887086642782
-4.5425,-0.001019976505350073,0.0292662822653721
-4.54125,-1.627970538396967e-05,0.0007816549356513777
-4.54,0.0006528514945931285,-0.02468695302973684
-4.53875,0.001321982694570227,-0.04345329574107553
-4.5375,0.002325679494535874,-0.06221963845241513
-4.53625,0.002325679494535874,-0.06423031802862908
-4.535,0.001656548294558776,-0.04345329574107553
-4.53375,0.000987417094581982,-0.01932514082650819
-4.5325,-1.627970538396967e-05,0.009159486503213292
-4.53125,-0.001019976505349617,0.03228230162968418
-4.53,-0.001354542105338166,0.04702728518859314
-4.52875,-0.002023673305315416,0.05842113612047674
-4.5275,-0.002358238905303813,0.05708068306966745
-4.52625,-0.001689107705326715,0.03730900057022132
-4.525,-0.0003508453053731274,0.01049993955403539
-4.52375,0.0006528514945931285,-0.01697934798757988
-4.5225,0.001321982694570227,-0.03775637027513343
-4.52125,0.001991113894547325,-0.05518225993566221
-4.52,0.002660245094524118,-0.06892190370645553
-4.51875,0.001991113894547325,-0.05082578752053002
-4.5175,0.001321982694570227,-0.02803808565676161
-4.51625,0.0003182858946050358,0.0004465416729359448
-4.515,-0.0006854109053613721,0.02558003637564272
-4.51375,-0.001354542105338166,0.0433410392988659
-4.5125,-0.002023673305315264,0.05473489023075011
-4.51125,-0.002358238905303661,0.06043181569668962
-4.51,-0.001689107705326715,0.04434637908697334
-4.50875,-0.0006854109053610678,0.02021822417239502
-4.5075,0.0003182858946045794,-0.008601516420017967
-4.50625,0.0009874170945819818,-0.03172433154649631
-4.505,0.001656548294558776,-0.04814488141891021
-4.50375,0.002660245094524423,-0.06758145065565384
-4.5025,0.002325679494536026,-0.0571929395118818
-4.50125,0.001656548294558776,-0.03574569069891857
-4.5,0.0006528514945931285,-0.008936629682720442
-4.49875,-0.0003508453053725187,0.01820754459618016
-4.4975,-0.001354542105338318,0.03864945362103672
-4.49625,-0.001689107705326715,0.05071353107832039
-4.495,-0.002358238905303813,0.06143715548479964
-4.49375,-0.002023673305315416,0.05138375760372992
-4.4925,-0.001354542105338166,0.02926628226536189
-4.49125,-1.627970538396967e-05,0.0001114284102464246
-4.49,0.0009874170945816775,-0.02502206629243932
-4.48875,0.00165654829455908,-0.04278306921567942
-4.4875,0.002325679494535874,-0.06221963845241422
-4.48625,0.002325679494535874,-0.0638952047659266
-4.485,0.00165654829455908,-0.04311818247838251
-4.48375,0.0009874170945812211,-0.01865491430107931
-4.4825,-1.627970538396967e-05,0.009829713028618245
-4.48125,-0.001019976505349617,0.03261741489238665
-4.48,-0.001689107705326411,0.04769751171399125
-4.47875,-0.002358238905303813,0.05942647590858478
-4.4775,-0.002023673305315264,0.0577509095950724
-4.47625,-0.001354542105338166,0.03797922709562628
-4.475,-0.0003508453053722145,0.01083505281671287
-4.47375,0.0003182858946045794,-0.01731446125028236
-4.4725,0.001321982694570227,-0.03742125701243095
-4.47125,0.00199111389454702,-0.05384180688484484
-4.47,0.002660245094524423,-0.06691122413024889
-4.46875,0.001991113894547325,-0.04948533446972011
-4.4675,0.0009874170945816775,-0.0266976326059517
-4.46625,0.000318285894604123,0.00145188146106776
-4.465,-0.0006854109053610678,0.02658537616374208
-4.46375,-0.001354542105338166,0.04401126582427085
-4.4625,-0.00202367330531496,0.05540511675614988
-4.46125,-0.002358238905303813,0.06143715548479964
-4.46,-0.001689107705326715,0.04535171887508076
-4.45875,-0.001019976505349617,0.02122356396050245
-4.4575,-1.627970538351324e-05,-0.00860151642002833
-4.45625,0.0009874170945816775,-0.03138921828378637
-4.455,0.001656548294558776,-0.04713954163080277
-4.45375,0.002325679494535569,-0.06724633739294222
-4.4525,0.00199111389454702,-0.05719293951186687
-4.45125,0.001321982694570227,-0.03474035091081114
-4.45,0.0006528514945931285,-0.007931289894613013
-4.44875,-0.0003508453053720623,0.01921288438427525
-4.4475,-0.001354542105338166,0.03965479340913866
-4.44625,-0.001689107705326715,0.05138375760372534
-4.445,-0.002358238905303813,0.06143715548479964
-4.44375,-0.00202367330531496,0.05171887086641761
-4.4425,-0.001354542105338166,0.02926628226536189
-4.44125,-0.0003508453053725187,0.0004465416729489012
-4.44,0.000652851494592672,-0.02502206629242774
-4.43875,0.001321982694570227,-0.0424479559529681
-4.4375,0.002325679494535874,-0.06154941192700927
-4.43625,0.002325679494535874,-0.06356009150322413
-4.435,0.001656548294558471,-0.04278306921565946
-4.43375,0.0009874170945816775,-0.01831980103838979
-4.4325,-1.627970538396967e-05,0.009829713028618245
-4.43125,-0.00101997650534916,0.0326174148923763
-4.43,-0.001689107705326715,0.04736239845129563
-4.42875,-0.002358238905303813,0.0590913626458823
-4.4275,-0.002023673305315264,0.05674556980696497
-4.42625,-0.001354542105337862,0.03697388730750666
-4.425,-0.0006854109053610678,0.01016482629132072
-4.42375,0.0003182858946045794,-0.01798468777568731
-4.4225,0.00132198269456977,-0.03842659680052908
-4.42125,0.001991113894547629,-0.05484714667296613
-4.42,0.002660245094524423,-0.06892190370646376
-4.41875,0.001991113894547325,-0.05116090078323249
-4.4175,0.001321982694570531,-0.02837319891947445
-4.41625,0.0003182858946045794,0.0001114284102464246
-4.415,-0.0006854109053610678,0.02524492311293217
-4.41375,-0.001354542105338166,0.04267081277346095
-4.4125,-0.002023673305315416,0.05439977696805007
-4.41125,-0.002358238905303813,0.05976158917128726
-4.41,-0.001689107705326715,0.04401126582427085
-4.40875,-0.0006854109053615243,0.01921288438429887
-4.4075,0.0003182858946045794,-0.008936629682720442
-4.40625,0.0009874170945816775,-0.0323945580718938
-4.405,0.001656548294558776,-0.04881510794431516
-4.40375,0.002660245094524271,-0.06825167718105424
-4.4025,0.002325679494535874,-0.0581982792999845
-4.40125,0.001321982694570227,-0.03641591722432352
-4.4,0.0006528514945934328,-0.009606856208137587
-4.39875,-0.0003508453053725187,0.01686709154537025
-4.3975,-0.001019976505349617,0.03730900057022132
-4.39625,-0.001689107705326715,0.04937307802751048
-4.395,-0.002023673305315264,0.05976158917128284
-4.39375,-0.002023673305315264,0.05004330455291543
-4.3925,-0.001019976505349617,0.02692048942644455
-4.39125,-1.627970538442612e-05,-0.001564137903253004
-4.39,0.0006528514945935849,-0.02669763260595978
-4.38875,0.001656548294558776,-0.04445863552918296
-4.3875,0.002325679494535874,-0.06356009150322413
-4.38625,0.002660245094524271,-0.0659058843421404
-4.385,0.001991113894547325,-0.04512886205458792
-4.38375,0.0009874170945816775,-0.02033048061460465
-4.3825,-1.627970538396967e-05,0.008154146715105863
-4.38125,-0.001019976505349769,0.0312769618415833
-4.38,-0.001354542105338166,0.04568683213778324
-4.37875,-0.002023673305315264,0.05741579633236992
-4.3775,-0.002023673305315264,0.05507000349345365
-4.37625,-0.001354542105338166,0.03529832099400647
-4.375,-0.0003508453053725187,0.008489259977808339
-4.37375,0.0006528514945931285,-0.01865491430109226
-4.3725,0.001321982694570531,-0.038426596800546
-4.37125,0.001991113894547325,-0.05518225993566221
-4.37,0.002660245094524423,-0.06791656391835632
-4.36875,0.001991113894547629,-0.05049067425783546
-4.3675,0.001321982694570227,-0.02770297239405913
-4.36625,0.0003182858946045794,0.0007816549356513777
-4.365,-0.0006854109053610678,0.02591514963833712
-4.36375,-0.00135454210533847,0.04300592603616876
-4.3625,-0.002023673305315264,0.05473489023075011
-4.36125,-0.002358238905303813,0.06009670243398973
-4.36,-0.001689107705327019,0.04401126582427817
-4.35875,-0.0006854109053606114,0.01887777112157231
-4.3575,0.0003182858946045794,-0.00927174294542292
-4.35625,0.0009874170945816775,-0.03205944480919132
-4.355,0.001656548294558471,-0.04814488141890289
-4.35375,0.002660245094524423,-0.06724633739295137
-4.3525,0.002325679494535874,-0.05719293951187707
-4.35125,0.001656548294558776,-0.03507546417351361
-4.35,0.000652851494592672,-0.007596176631898193
-4.34875,-0.0003508453053725187,0.01954799764699007
-4.3475,-0.001354542105338166,0.04099524645994856
-4.34625,-0.001689107705326563,0.05272421065452991
-4.345,-0.002358238905303813,0.06277760853560954
-4.34375,-0.002023673305315264,0.05238909739183277
-4.3425,-0.001354542105338166,0.02993650879076684
-4.34125,-1.627970538351324e-05,0.00111676819834273
-4.34,0.0009874170945816775,-0.02334649997892694
-4.33875,0.001656548294558776,-0.04144261616486067
-4.3375,0.002325679494535569,-0.06087918540159547
-4.33625,0.002325679494535874,-0.06221963845241422
-4.335,0.001656548294558776,-0.04144261616486067
-4.33375,0.0009874170945816775,-0.01664423472487741
-4.3325,-1.62797053844261e-05,0.01150527934214099
-4.33125,-0.001019976505349617,0.03429298120589903
-4.33,-0.001689107705326715,0.049037964764808
-4.32875,-0.002023673305315112,0.06043181569668703
-4.3275,-0.002358238905303357,0.0584211361204682
-4.32625,-0.001354542105338166,0.03831434035832876
-4.325,-0.0006854109053610678,0.01117016607942815
-4.32375,0.000318285894604123,-0.01563889493675778
-4.3225,0.001321982694570227,-0.03608080396162105
-4.32125,0.001991113894547325,-0.05317158035944735
-4.32,0.002325679494535874,-0.06590588434214147
-4.31875,0.00199111389454702,-0.04847999468160247
-4.3175,0.001321982694570227,-0.02602740608054675
-4.31625,0.0003182858946045794,0.002122107986461284
-4.315,-0.0006854109053606114,0.0272556026891356
-4.31375,-0.001354542105338166,0.04434637908697334
-4.3125,-0.002023673305315264,0.05574023001885754
-4.31125,-0.002358238905303813,0.06076692895939469
-4.31,-0.001689107705326411,0.04535171887506949
-4.30875,-0.001019976505349617,0.0205533374350975
-4.3075,0.0003182858946045794,-0.007931289894613013
-4.30625,0.0009874170945813731,-0.03071899175837106
-4.305,0.001656548294558776,-0.04646931510539782
-4.30375,0.002325679494535874,-0.06557077107943898
-4.3025,0.001991113894547325,-0.05518225993566221
-4.30125,0.001321982694569922,-0.03373501112269137
-4.3,0.0006528514945931285,-0.006590836843803107
-4.29875,-0.0003508453053725187,0.0205533374350975
-4.2975,-0.00135454210533771,0.04066013319723695
-4.29625,-0.001689107705327019,0.05272421065453982
-4.295,-0.002358238905303813,0.06277760853560954
-4.29375,-0.002023673305315264,0.05238909739183277
-4.2925,-0.00135454210533847,0.02960139552807473
-4.29125,-1.627970538396967e-05,0.001116768198353854
-4.29,0.0006528514945931285,-0.02468695302973684
-4.28875,0.001656548294558776,-0.04311818247837305
-4.2875,0.002325679494535874,-0.06221963845241498
-4.28625,0.002325679494535874,-0.0638952047659266
-4.285,0.001991113894547325,-0.04311818247837305
-4.28375,0.000987417094582134,-0.01764957451299641
-4.2825,-1.627970538396967e-05,0.0104999395540232
-4.28125,-0.001019976505349617,0.03295252815508913
-4.28,-0.001689107705326715,0.04736239845129563
-4.27875,-0.002023673305315416,0.05909136264588108
-4.2775,-0.002358238905303813,0.05641045654426249
-4.27625,-0.001354542105338166,0.0363036607821139
-4.275,-0.0003508453053729752,0.009494599765927959
-4.27375,0.0003182858946045794,-0.01798468777568731
-4.2725,0.001321982694570227,-0.03775637027513343
-4.27125,0.001991113894547325,-0.05484714667295974
-4.27,0.002325679494535722,-0.06758145065564576
-4.26875,0.001991113894547325,-0.04982044773242258
-4.2675,0.001321982694570227,-0.02736785913135666
-4.26625,0.0003182858946050358,0.0007816549356385767
-4.265,-0.0006854109053613721,0.02591514963834505
-4.26375,-0.001354542105338166,0.0433410392988659
-4.2625,-0.002023673305315264,0.05439977696804763
-4.26125,-0.002358238905303661,0.05976158917128482
-4.26,-0.001689107705326715,0.0433410392988659
-4.25875,-0.0006854109053610678,0.01820754459618016
-4.2575,0.0003182858946045794,-0.0109473092589353
-4.25625,0.001321982694570379,-0.03373501112271102
-4.255,0.001656548294558776,-0.04982044773242258
-4.25375,0.002660245094524423,-0.06858679044376127
-4.2525,0.002325679494536026,-0.0578631660372869
-4.25125,0.001656548294558776,-0.03608080396162105
-4.25,0.0006528514945931285,-0.008601516420017967
-4.24875,-0.0003508453053725187,0.01787243133347768
-4.2475,-0.001019976505349921,0.03797922709563176
-4.24625,-0.001689107705326715,0.05004330455291543
-4.245,-0.002358238905303813,0.06043181569669221
-4.24375,-0.002023673305315416,0.05004330455292016
-4.2425,-0.001019976505349617,0.0275907159518495
-4.24125,-1.627970538396967e-05,-0.001229024640563482
-4.24,0.0009874170945816775,-0.02602740608054675
-4.23875,0.00165654829455908,-0.04345329574108407
-4.2375,0.002325679494535874,-0.06221963845241422
-4.23625,0.002325679494535874,-0.0638952047659266
-4.235,0.001991113894547477,-0.04278306921568018
-4.23375,0.0009874170945812211,-0.01764957451297203
-4.2325,-1.627970538396967e-05,0.0104999395540232
-4.23125,-0.001019976505349617,0.03328764141779161
-4.23,-0.001354542105338014,0.04736239845128923
-4.22875,-0.002023673305315264,0.05942647590858478
-4.2275,-0.002023673305315264,0.05674556980696497
-4.22625,-0.001354542105338166,0.03596854751941142
-4.225,-0.0003508453053720623,0.009159486503200948
-4.22375,0.0006528514945931285,-0.01798468777568731
-4.2225,0.001321982694570227,-0.03842659680053838
-4.22125,0.00199111389454702,-0.05484714667295227
-4.22,0.002660245094524423,-0.06758145065565384
-4.21875,0.001991113894547325,-0.05015556099512506
-4.2175,0.001321982694570227,-0.02703274586865418
-4.21625,0.000318285894604123,0.001786994723770237
-4.215,-0.0006854109053610678,0.02692048942644455
-4.21375,-0.001354542105338166,0.04434637908697334
-4.2125,-0.00202367330531496,0.05574023001885235
-4.21125,-0.002358238905303813,0.06076692895939469
-4.21,-0.001689107705326715,0.04468149234967581
-4.20875,-0.0006854109053610678,0.01988311090969254
-4.2075,0.0003182858946048837,-0.008936629682730806
-4.20625,0.0009874170945816775,-0.03172433154648885
-4.205,0.001656548294558776,-0.04747465489350525
-4.20375,0.002660245094523966,-0.06657611086753773
-4.2025,0.002325679494535569,-0.05618759972375973
-4.20125,0.001656548294558776,-0.03440523764810866
-4.2,0.0006528514945931285,-0.007596176631910537
-4.19875,-0.0003508453053720623,0.0192128843842754
-4.1975,-0.001019976505349617,0.03931968014643619
-4.19625,-0.001689107705326715,0.05138375760372534
-4.195,-0.002023673305315264,0.06143715548479964
-4.19375,-0.002023673305314808,0.05104864434101266
-4.1925,-0.001019976505349617,0.02859605573995693
-4.19125,-1.627970538396967e-05,-0.000223684852456052
-4.19,0.0009874170945812211,-0.02602740608053502
-4.18875,0.001656548294558776,-0.04345329574107553
-4.1875,0.002325679494535874,-0.06221963845241422
-4.18625,0.002325679494535874,-0.06322497824052165
-4.185,0.001656548294558471,-0.04244795595295667
-4.18375,0.0009874170945816775,-0.01731446125028236
-4.1825,-1.627970538396967e-05,0.01083505281672567
-4.18125,-0.00101997650534916,0.03362275468048372
-4.18,-0.001689107705326715,0.04736239845129563
-4.17875,-0.002023673305315264,0.05875624938317982
-4.1775,-0.002358238905303813,0.05641045654426249
-4.17625,-0.00135454210533771,0.03663877404480403
-4.175,-0.0003508453053725187,0.009494599765915769
-4.17375,0.0006528514945931285,-0.01764957451298483
-4.1725,0.001321982694569922,-0.03742125701242196
-4.17125,0.001991113894547629,-0.05417692014756043
-4.17,0.002660245094524423,-0.06657611086754642
-4.16875,0.001991113894547325,-0.04915022120701763
-4.1675,0.001321982694570531,-0.02636251934325959
-4.16625,0.0003182858946045794,0.001786994723758807
-4.165,-0.0006854109053610678,0.02692048942644455
-4.16375,-0.001354542105338166,0.04401126582427085
-4.1625,-0.002023673305315416,0.05574023001885967
-4.16125,-0.002358238905303813,0.06043181569669221
-4.16,-0.001689107705326715,0.04401126582427085
-4.15875,-0.001019976505349921,0.01954799764700119
-4.1575,0.0003182858946045794,-0.009606856208125396
-4.15625,0.0009874170945816775,-0.03306478459729876
-4.155,0.001656548294558776,-0.04915022120701763
-4.15375,0.002660245094524271,-0.06758145065564897
-4.1525,0.002325679494535874,-0.05685782624917459
-4.15125,0.001656548294558776,-0.03541057743621609
-4.15,0.0006528514945935849,-0.00793128989462551
-4.14875,-0.0003508453053725187,0.01887777112158511
-4.1475,-0.001019976505349617,0.03898456688373371
-4.14625,-0.001689107705326715,0.05104864434102287
-4.145,-0.002023673305315264,0.06110204222209228
-4.14375,-0.002023673305315264,0.05037841781561792
-4.1425,-0.001019976505349617,0.02792582921455198
-4.14125,-1.627970538442612e-05,-0.0008939113778478995
-4.14,0.0009874170945819818,-0.02602740608055437
-4.13875,0.001656548294558776,-0.04278306921567058
-4.1375,0.002325679494535874,-0.06221963845241422
-4.13625,0.002325679494535874,-0.06322497824052119
-4.135,0.001991113894547325,-0.0424479559529681
-4.13375,0.0009874170945816775,-0.01764957451298483
-4.1325,-1.627970538396967e-05,0.01016482629132072
-4.13125,-0.001019976505349769,0.03295252815509568
-4.13,-0.001354542105338166,0.04736239845129563
-4.12875,-0.002023673305315264,0.0590913626458823
-4.1275,-0.002023673305315264,0.05607534328156139
-4.12625,-0.001354542105338166,0.0363036607821139
-4.125,-0.0003508453053725187,0.008824373240510816
-4.12375,0.0006528514945931285,-0.01899002756379474
-4.1225,0.001321982694570531,-0.03943193658865328
-4.12125,0.001991113894547325,-0.05585248646106716
-4.12,0.002660245094524423,-0.06791656391835632
-4.11875,0.001991113894547629,-0.04982044773243081
-4.1175,0.001321982694570227,-0.0266976326059517
-4.11625,0.0003182858946045794,0.001451881461056331
-4.115,-0.0006854109053610678,0.02658537616374208
-4.11375,-0.001019976505349921,0.04367615256157356
-4.1125,-0.001689107705326715,0.05507000349345258
-4.11125,-0.002023673305315264,0.05976158917128726
-4.11,-0.00135454210533847,0.04367615256157569
-4.10875,-0.0006854109053606114,0.01887777112157185
-4.1075,0.0003182858946045794,-0.01027708273353035
-4.10625,0.001321982694570227,-0.0323945580718938
-4.105,0.00199111389454702,-0.04747465489349839
-4.10375,0.002660245094524423,-0.06657611086754642
-4.1025,0.002325679494535874,-0.05585248646106716
-4.10125,0.001656548294558776,-0.03440523764810866
-4.1,0.000652851494592672,-0.007596176631898345
-4.09875,-0.0003508453053725187,0.01921288438428759
-4.0975,-0.001019976505349617,0.03931968014643619
-4.09625,-0.001689107705326411,0.05138375760371985
-4.095,-0.002023673305315264,0.06110204222209716
-4.09375,-0.001689107705326715,0.05037841781561792
-4.0925,-0.001019976505349617,0.02692048942644455
-4.09125,-1.627970538351324e-05,-0.001564137903277235
-4.09,0.0009874170945816775,-0.02636251934324923
-4.08875,0.001656548294558776,-0.04378840900377801
-4.0875,0.002325679494535569,-0.06288986497781049
-4.08625,0.002660245094524423,-0.06356009150322413
-4.085,0.001991113894547325,-0.04211284269026563
-4.08375,0.0009874170945816775,-0.01697934798757988
-4.0825,-1.627970538427396e-05,0.01150527934214084
-4.08125,-0.0006854109053610678,0.03395786794319656
-4.08,-0.001354542105338166,0.04836773823940305
-4.07875,-0.00202367330531496,0.05976158917128208
-4.0775,-0.00202367330531496,0.05674556980695567
-4.07625,-0.001354542105338166,0.0363036607821139
-4.075,-0.0003508453053725187,0.008824373240510816
-4.07375,0.000652851494592672,-0.01831980103837744
-4.0725,0.001321982694570227,-0.03775637027513343
-4.07125,0.001991113894547325,-0.05451203341025726
-4.07,0.002660245094524423,-0.06657611086754642
-4.06875,0.00199111389454702,-0.0488151079443048
-4.0675,0.001321982694570227,-0.02602740608054675
-4.06625,0.0003182858946045794,0.002122107986461284
-4.065,-0.0006854109053606114,0.02759071595183792
-4.06375,-0.001354542105338166,0.04468149234967581
-4.0625,-0.001689107705326715,0.05607534328156001
-4.06125,-0.002023673305315264,0.06076692895939469
-4.06,-0.001354542105337862,0.04434637908696206
-4.05875,-0.0006854109053610678,0.01954799764699007
-4.0575,0.0003182858946045794,-0.008601516420017967
-4.05625,0.00132198269456977,-0.03138921828377601
-4.055,0.001991113894547325,-0.04747465489350525
-4.05375,0.002660245094524423,-0.06657611086754642
-4.0525,0.002325679494535874,-0.05585248646106716
-4.05125,0.001656548294558319,-0.03373501112269137
-4.05,0.0006528514945931285,-0.006590836843803107
-4.04875,-0.0003508453053725187,0.02021822417239502
-4.0475,-0.001019976505349312,0.04032501993453447
-4.04625,-0.001689107705327019,0.05205398412913471
-4.045,-0.002358238905303813,0.06177226874750211
-4.04375,-0.001689107705326715,0.05171887086642782
-4.0425,-0.001019976505349921,0.02993650879077675
-4.04125,-1.627970538396967e-05,0.001786994723758807
-4.04,0.0009874170945816775,-0.02334649997892694
-4.03875,0.001656548294558776,-0.04144261616486067
-4.0375,0.002325679494535874,-0.06154941192700927
-4.03625,0.002325679494535874,-0.06154941192700927
-4.035,0.001656548294558776,-0.04010216311405077
-4.03375,0.000987417094581982,-0.01530378167407877
-4.0325,-1.627970538396967e-05,0.01284573239294053
-4.03125,-0.001019976505349617,0.03529832099400647
-4.03,-0.001354542105338166,0.04970819129021296
-4.02875,-0.002023673305315264,0.06076692895939331
-4.0275,-0.002023673305315264,0.0577509095950724
-4.02625,-0.001354542105338166,0.0376441138329238
-4.025,-0.0003508453053729752,0.01016482629133322
-4.02375,0.0006528514945931285,-0.01731446125028236
-4.0225,0.001321982694570227,-0.03742125701243095
-4.02125,0.001991113894547325,-0.05417692014755478
-4.02,0.002660245094524118,-0.06624099760483586
-4.01875,0.001991113894547325,-0.04847999468161268
-4.0175,0.001321982694570227,-0.02502206629243932
-4.01625,0.0003182858946050358,0.003462561037258234
-4.015,-0.0006854109053613721,0.02826094247726223
-4.01375,-0.001354542105338166,0.04535171887508076
-4.0125,-0.002023673305315264,0.05641045654426249
-4.01125,-0.002358238905303661,0.06143715548479736
-4.01,-0.001689107705326715,0.04501660561237829
-4.00875,-0.001019976505349617,0.02021822417239502
-4.0075,0.0003182858946045794,-0.008266403157315489
-4.00625,0.0009874170945819818,-0.03071899175838873
-4.005,0.001656548294558776,-0.0468044283681003
-4.00375,0.002660245094524423,-0.06624099760484393
-4.0025,0.002325679494536026,-0.05518225993566724
-4.00125,0.001321982694570227,-0.03339989786000123
-4,0.0006528514945931285,-0.006255723581100631
-3.99875,-0.0003508453053725187,0.02088845069779997
-3.9975,-0.001019976505349617,0.04066013319724609
-3.99625,-0.001689107705326715,0.05272421065453525
-3.995,-0.002358238905303813,0.06210738201020459
-3.99375,-0.002023673305315264,0.05138375760372534
-3.9925,-0.001019976505349617,0.02859605573995693
-3.99125,-1.627970538396967e-05,-0.000223684852456052
-3.99,0.0009874170945816775,-0.02569229281784427
-3.98875,0.001656548294558776,-0.04278306921567058
-3.9875,0.002325679494535874,-0.06255475171511669
-3.98625,0.002325679494535874,-0.06188452518971174
-3.985,0.001656548294558776,-0.04110750290215819
-3.98375,0.0009874170945816775,-0.01597400819947245
-3.9825,-1.627970538396967e-05,0.01184039260483311
-3.98125,-0.001019976505349617,0.03462809446860151
-3.98,-0.001689107705326715,0.04870285150210553
-3.97875,-0.002023673305315264,0.06043181569669221
-3.9775,-0.002023673305315264,0.05708068306966745
-3.97625,-0.001354542105338166,0.03663877404481637
-3.975,-0.0003508453053725187,0.009829713028618245
-3.97375,0.0006528514945931285,-0.01831980103838979
-3.9725,0.001321982694570227,-0.03775637027513343
-3.97125,0.001991113894547325,-0.05484714667295974
-3.97,0.002660245094524423,-0.06657611086754642
-3.96875,0.001991113894547325,-0.04814488141891021
-3.9675,0.001321982694570227,-0.02535717955514179
-3.96625,0.0003182858946045794,0.002792334511866237
-3.965,-0.0006854109053610678,0.0275907159518495
-3.96375,-0.001354542105338166,0.04434637908697334
-3.9625,-0.002023673305315264,0.05641045654426249
-3.96125,-0.002358238905303813,0.06110204222209716
-3.96,-0.001689107705326715,0.04501660561237829
-3.95875,-0.001019976505349617,0.01988311090969254
-3.9575,0.0003182858946045794,-0.00927174294542292
-3.95625,0.0009874170945816775,-0.0323945580718938
-3.955,0.001656548294558776,-0.04814488141891021
-3.95375,0.002660245094524423,-0.06691122413024889
-3.9525,0.001991113894547325,-0.05585248646106716
-3.95125,0.001321982694570227,-0.03373501112270371
-3.95,0.0006528514945931285,-0.006590836843803107
-3.94875,-0.0003508453053725187,0.0205533374350975
-3.9475,-0.001354542105338166,0.04099524645994856
-3.94625,-0.001689107705326715,0.05305932391723772
-3.945,-0.002358238905303813,0.06244249527290707
-3.94375,-0.002023673305315264,0.05138375760372534
-3.9425,-0.001019976505349617,0.02893116900265941
-3.94125,-0.0003508453053725187,0.0007816549356513777
-3.94,0.0006528514945931285,-0.02468695302973684
-3.93875,0.001656548294558776,-0.04177772942756315
-3.9375,0.002325679494535874,-0.06154941192700927
-3.93625,0.002325679494535874,-0.06188452518971174
-3.935,0.001656548294558776,-0.04077238963945572
-3.93375,0.0009874170945816775,-0.01597400819947245
-3.9325,-0.0003508453053725187,0.01184039260483311
-3.93125,-0.001019976505349617,0.03462809446860151
-3.93,-0.001689107705326715,0.04836773823940305
-3.92875,-0.002358238905303813,0.06009670243398973
-3.9275,-0.002358238905303813,0.05674556980696497
-3.92625,-0.001354542105338166,0.0363036607821139
-3.925,-0.0003508453053725187,0.009159486503213292
-3.92375,0.0003182858946045794,-0.01865491430109226
-3.9225,0.001321982694570227,-0.03876171006324086
-3.92125,0.001991113894547325,-0.05585248646106716
-3.92,0.002325679494535874,-0.06758145065565384
-3.91875,0.001991113894547325,-0.04948533446972011
-3.9175,0.0009874170945816775,-0.02602740608054675
-3.91625,-1.627970538396967e-05,0.002457221249163761
-3.915,-0.0006854109053610678,0.02725560268914703
-3.91375,-0.001354542105338166,0.04468149234967581
-3.9125,-0.002023673305315264,0.05607534328156001
-3.91125,-0.002358238905303813,0.06043181569669221
-3.91,-0.001689107705326715,0.04367615256156838
-3.90875,-0.001019976505349617,0.01887777112158511
-3.9075,-1.627970538396967e-05,-0.009606856208125396
-3.90625,0.0009874170945816775,-0.0323945580718938
-3.905,0.001656548294558776,-0.04814488141891021
-3.90375,0.002325679494535874,-0.06724633739295137
-3.9025,0.001991113894547325,-0.05585248646106716
-3.90125,0.001321982694570227,-0.03407012438540619
-3.9,0.0003182858946045794,-0.006925950106505584
-3.89875,-0.0006854109053610678,0.01954799764699007
-3.8975,-0.001354542105338166,0.03965479340913866
-3.89625,-0.002023673305315264,0.05138375760372534
-3.895,-0.002358238905303813,0.06110204222209716
-3.89375,-0.002023673305315264,0.05004330455291543
-3.8925,-0.001354542105338166,0.02725560268914703
-3.89125,-1.627970538396967e-05,-0.001899251165968435
-3.89,0.0006528514945931285,-0.02736785913135666
-3.88875,0.001656548294558776,-0.04445863552918296
-3.8875,0.002325679494535874,-0.06423031802862908
-3.88625,0.002325679494535874,-0.0638952047659266
-3.885,0.001656548294558776,-0.04278306921567058
-3.88375,0.0006528514945931285,-0.01764957451298483
-3.8825,-0.0003508453053725187,0.0104999395540232
-3.88125,-0.001019976505349617,0.03328764141779161
-3.88,-0.001689107705326715,0.04635705866318819
-3.87875,-0.002358238905303813,0.05808602285777487
-3.8775,-0.002358238905303813,0.05473489023075011
-3.87625,-0.001354542105338166,0.03429298120589903
-3.875,-0.0003508453053725187,0.006813693664295956
-3.87375,0.0003182858946045794,-0.02033048061460465
-3.8725,0.001321982694570227,-0.03976704985134829
-3.87125,0.001991113894547325,-0.05719293951187707
-3.87,0.002660245094524423,-0.06892190370646376
-3.86875,0.001991113894547325,-0.05082578752053002
-3.8675,0.001321982694570227,-0.02803808565676161
-3.86625,0.0003182858946045794,0.0004465416729489012
-3.865,-0.0006854109053610678,0.02490980985022969
-3.86375,-0.001354542105338166,0.042000586248056
-3.8625,-0.001689107705326715,0.05372955044264268
-3.86125,-0.002023673305315264,0.0577509095950724
-3.86,-0.001689107705326715,0.04099524645994856
-3.85875,-0.0006854109053610678,0.0161968650199653
-3.8575,0.0003182858946045794,-0.01195264904704273
-3.85625,0.001321982694570227,-0.03440523764810866
-3.855,0.001991113894547325,-0.05015556099512506
-3.85375,0.002660245094524423,-0.06892190370646376
-3.8525,0.002325679494535874,-0.05752805277457955
-3.85125,0.001656548294558776,-0.03507546417351361
-3.85,0.0006528514945931285,-0.008266403157315489
-3.84875,-0.0003508453053725187,0.01854265785888264
-3.8475,-0.001354542105338166,0.03864945362103123
-3.84625,-0.001689107705326715,0.05104864434102287
-3.845,-0.002358238905303813,0.06076692895939469
-3.84375,-0.002023673305315264,0.05037841781561792
-3.8425,-0.001354542105338166,0.02792582921455198
-3.84125,-1.627970538396967e-05,-0.0005587981151585285
-3.84,0.0006528514945931285,-0.02602740608054675
-3.83875,0.001321982694570227,-0.04311818247837305
-3.8375,0.002325679494535874,-0.06255475171511669
-3.83625,0.002325679494535874,-0.06221963845241422
-3.835,0.001656548294558776,-0.04110750290215819
-3.83375,0.0009874170945816775,-0.01630912146217493
-3.8325,-0.0003508453053725187,0.01184039260483311
-3.83125,-0.001019976505349617,0.03462809446860151
-3.83,-0.001689107705326715,0.04836773823940305
-3.82875,-0.002358238905303813,0.05976158917128726
-3.8275,-0.002023673305315264,0.05641045654426249
-3.82625,-0.001354542105338166,0.03563343425670894
-3.825,-0.0003508453053725187,0.007819033452403385
-3.82375,0.0006528514945931285,-0.01966025408919969
-3.8225,0.001321982694570227,-0.03876171006324086
-3.82125,0.001991113894547325,-0.05551737319836469
-3.82,0.002660245094524423,-0.06657611086754642
-3.81875,0.001991113894547325,-0.04814488141891021
-3.8175,0.001321982694570227,-0.02535717955514179
-3.81625,0.0003182858946045794,0.003127447774568714
-3.815,-0.0006854109053610678,0.02792582921455198
-3.81375,-0.001354542105338166,0.04501660561237829
-3.8125,-0.002023673305315264,0.05641045654426249
-3.81125,-0.002358238905303813,0.06076692895939469
-3.81,-0.001689107705326715,0.04367615256156838
-3.80875,-0.0006854109053610678,0.01820754459618016
-3.8075,0.0003182858946045794,-0.01061219599623283
-3.80625,0.001321982694570227,-0.03272967133459628
-3.805,0.001656548294558776,-0.04881510794431516
-3.80375,0.002660245094524423,-0.06724633739295137
-3.8025,0.001991113894547325,-0.05551737319836469
-3.80125,0.001321982694570227,-0.03373501112270371
-3.8,0.0003182858946045794,-0.006590836843803107
-3.79875,-0.0003508453053725187,0.01988311090969254
-3.7975,-0.001354542105338166,0.03998990667184114
-3.79625,-0.001689107705326715,0.05171887086642782
-3.795,-0.002358238905303813,0.06110204222209716
-3.79375,-0.002023673305315264,0.05004330455291543
-3.7925,-0.001019976505349617,0.02725560268914703
-3.79125,-1.627970538396967e-05,-0.001229024640563482
-3.79,0.0009874170945816775,-0.02636251934324923
-3.78875,0.001656548294558776,-0.04311818247837305
-3.7875,0.002325679494535874,-0.06322497824052165
-3.78625,0.002325679494535874,-0.06255475171511669
-3.785,0.001656548294558776,-0.04177772942756315
-3.78375,0.0009874170945816775,-0.01664423472487741
-3.7825,-1.627970538396967e-05,0.01150527934213063
-3.78125,-0.001019976505349617,0.03429298120589903
-3.78,-0.001689107705326715,0.0476975117139981
-3.77875,-0.002023673305315264,0.0590913626458823
-3.7775,-0.002023673305315264,0.05507000349345258
-3.77625,-0.001354542105338166,0.03563343425670894
-3.775,-0.0003508453053725187,0.008489259977808339
-3.77375,0.0006528514945931285,-0.01831980103838979
-3.7725,0.001321982694570227,-0.03842659680053838
-3.77125,0.001991113894547325,-0.05585248646106716
-3.77,0.002660245094524423,-0.06657611086754642
-3.76875,0.001991113894547325,-0.04847999468161268
-3.7675,0.0009874170945816775,-0.02535717955514179
-3.76625,0.0003182858946045794,0.003127447774568714
-3.765,-0.0006854109053610678,0.02792582921455198
-3.76375,-0.001354542105338166,0.04468149234967581
-3.7625,-0.002023673305315264,0.05607534328156001
-3.76125,-0.002358238905303813,0.05976158917128726
-3.76,-0.001689107705326715,0.04300592603616343
-3.75875,-0.0006854109053610678,0.01753731807077521
-3.7575,0.0003182858946045794,-0.0109473092589353
-3.75625,0.0009874170945816775,-0.03339989786000123
-3.755,0.001656548294558776,-0.04915022120701763
-3.75375,0.002325679494535874,-0.06791656391835632
-3.7525,0.002325679494535874,-0.05551737319836469
-3.75125,0.001321982694570227,-0.03373501112270371
-3.75,0.0006528514945931285,-0.006255723581100631
-3.74875,-0.0006854109053610678,0.02088845069779997
-3.7475,-0.001354542105338166,0.04066013319724609
-3.74625,-0.001689107705326715,0.05238909739183277
-3.745,-0.002358238905303813,0.06210738201020459
-3.74375,-0.002023673305315264,0.05037841781561792
-3.7425,-0.001019976505349617,0.02725560268914703
-3.74125,-1.627970538396967e-05,-0.001229024640563482
-3.74,0.0006528514945931285,-0.02569229281784427
-3.73875,0.001321982694570227,-0.04311818247837305
-3.7375,0.002325679494535874,-0.06221963845241422
-3.73625,0.002325679494535874,-0.06121429866430679
-3.735,0.001656548294558776,-0.04043727637675324
-3.73375,0.0006528514945931285,-0.01563889493676997
-3.7325,-0.0003508453053725187,0.01217550586753558
-3.73125,-0.001019976505349617,0.03429298120589903
-3.73,-0.001689107705326715,0.04836773823940305
-3.72875,-0.002358238905303813,0.06043181569669221
-3.7275,-0.002358238905303813,0.05607534328156001
-3.72625,-0.001354542105338166,0.03529832099400647
-3.725,-0.0003508453053725187,0.007819033452403385
-3.72375,0.0006528514945931285,-0.01932514082649722
-3.7225,0.001321982694570227,-0.03876171006324086
-3.72125,0.001991113894547325,-0.05652271298647212
-3.72,0.002660245094524423,-0.06724633739295137
-3.71875,0.001991113894547325,-0.04881510794431516
-3.7175,0.0009874170945816775,-0.02535717955514179
-3.71625,0.0003182858946045794,0.003127447774568714
-3.715,-0.0006854109053610678,0.02792582921455198
-3.71375,-0.001354542105338166,0.04501660561237829
-3.7125,-0.002023673305315264,0.05674556980696497
-3.71125,-0.002358238905303813,0.06043181569669221
-3.71,-0.001689107705326715,0.0433410392988659
-3.70875,-0.0006854109053610678,0.01787243133347768
-3.7075,0.0003182858946045794,-0.01061219599623283
-3.70625,0.001321982694570227,-0.03306478459729876
-3.705,0.001656548294558776,-0.04881510794431516
-3.70375,0.002660245094524423,-0.06791656391835632
-3.7025,0.001991113894547325,-0.05518225993566221
-3.70125,0.001321982694570227,-0.03306478459729876
-3.7,0.0003182858946045794,-0.005920610318398154
-3.69875,-0.0003508453053725187,0.0205533374350975
-3.6975,-0.001354542105338166,0.03998990667184114
-3.69625,-0.001689107705326715,0.05238909739183277
-3.695,-0.002358238905303813,0.06177226874750211
-3.69375,-0.002023673305315264,0.05004330455291543
-3.6925,-0.001019976505349617,0.02692048942644455
-3.69125,-1.627970538396967e-05,-0.002234364428670911
-3.69,0.0009874170945816775,-0.02636251934324923
-3.68875,0.001656548294558776,-0.04378840900377801
-3.6875,0.002325679494535874,-0.06322497824052165
-3.68625,0.002325679494535874,-0.06288986497781918
-3.685,0.001656548294558776,-0.04144261616486067
-3.68375,0.0006528514945931285,-0.01597400819947245
-3.6825,-1.627970538396967e-05,0.01217550586753558
-3.68125,-0.001019976505349617,0.03462809446860151
-3.68,-0.001689107705326715,0.04803262497670058
-3.67875,-0.002023673305315264,0.06009670243398973
-3.6775,-0.002358238905303813,0.05641045654426249
-3.67625,-0.001354542105338166,0.03563343425670894
-3.675,-0.0003508453053725187,0.008489259977808339
-3.67375,0.0006528514945931285,-0.01932514082649722
-3.6725,0.001321982694570227,-0.03842659680053838
-3.67125,0.001991113894547325,-0.05551737319836469
-3.67,0.002325679494535874,-0.06657611086754642
-3.66875,0.001991113894547325,-0.04814488141891021
-3.6675,0.001321982694570227,-0.02535717955514179
-3.66625,0.0003182858946045794,0.002792334511866237
-3.665,-0.0006854109053610678,0.0275907159518495
-3.66375,-0.001354542105338166,0.04401126582427085
-3.6625,-0.002023673305315264,0.05540511675615506
-3.66125,-0.002358238905303813,0.05942647590858478
-3.66,-0.001689107705326715,0.04267081277346095
-3.65875,-0.001019976505349617,0.01787243133347768
-3.6575,0.0003182858946045794,-0.0109473092589353
-3.65625,0.001321982694570227,-0.03407012438540619
-3.655,0.001656548294558776,-0.05082578752053002
-3.65375,0.002660245094524423,-0.06925701696916622
-3.6525,0.001991113894547325,-0.05685782624917459
-3.65125,0.001321982694570227,-0.03507546417351361
-3.65,0.0003182858946045794,-0.007596176631910537
-3.64875,-0.0006854109053610678,0.01887777112158511
-3.6475,-0.001354542105338166,0.03898456688373371
-3.64625,-0.001689107705326715,0.05138375760372534
-3.645,-0.002358238905303813,0.06076692895939469
-3.64375,-0.002023673305315264,0.049037964764808
-3.6425,-0.001019976505349617,0.0262502629010396
-3.64125,-1.627970538396967e-05,-0.002569477691373388
-3.64,0.0009874170945816775,-0.02736785913135666
-3.63875,0.001656548294558776,-0.04479374879188544
-3.6375,0.002325679494535874,-0.0638952047659266
-3.63625,0.002325679494535874,-0.06288986497781918
-3.635,0.001656548294558776,-0.04177772942756315
-3.63375,0.0009874170945816775,-0.01664423472487741
-3.6325,-1.627970538396967e-05,0.01117016607942815
-3.63125,-0.001019976505349617,0.03362275468049408
-3.63,-0.001689107705326715,0.04736239845129563
-3.62875,-0.002023673305315264,0.0590913626458823
-3.6275,-0.002023673305315264,0.05507000349345258
-3.62625,-0.001354542105338166,0.03462809446860151
-3.625,-0.0003508453053725187,0.007483920189700909
-3.62375,0.0006528514945931285,-0.01932514082649722
-3.6225,0.001321982694570227,-0.03976704985134829
-3.62125,0.001991113894547325,-0.05752805277457955
-3.62,0.002660245094524423,-0.0682516771810588
-3.61875,0.001991113894547325,-0.04948533446972011
-3.6175,0.001321982694570227,-0.02602740608054675
-3.61625,0.0003182858946045794,0.002792334511866237
-3.615,-0.0006854109053610678,0.02725560268914703
-3.61375,-0.001354542105338166,0.04434637908697334
-3.6125,-0.002023673305315264,0.05607534328156001
-3.61125,-0.002358238905303813,0.06009670243398973
-3.61,-0.001689107705326715,0.04300592603616343
-3.60875,-0.0006854109053610678,0.01787243133347768
-3.6075,0.0003182858946045794,-0.01061219599623283
-3.60625,0.0009874170945816775,-0.03339989786000123
-3.605,0.001656548294558776,-0.04915022120701763
-3.60375,0.002660245094524423,-0.06791656391835632
-3.6025,0.001991113894547325,-0.05551737319836469
-3.60125,0.001321982694570227,-0.03373501112270371
-3.6,0.0006528514945931285,-0.006255723581100631
-3.59875,-0.0003508453053725187,0.0205533374350975
-3.5975,-0.001354542105338166,0.03998990667184114
-3.59625,-0.001689107705326715,0.05205398412913029
-3.595,-0.002358238905303813,0.06177226874750211
-3.59375,-0.002023673305315264,0.04970819129021296
-3.5925,-0.001354542105338166,0.02658537616374208
-3.59125,-1.627970538396967e-05,-0.001899251165968435
-3.59,0.0009874170945816775,-0.02636251934324923
-3.58875,0.001321982694570227,-0.04345329574107553
-3.5875,0.002325679494535874,-0.06456543129133155
-3.58625,0.002325679494535874,-0.06288986497781918
-3.585,0.001656548294558776,-0.04211284269026563
-3.58375,0.0009874170945816775,-0.01630912146217493
-3.5825,-1.627970538396967e-05,0.01184039260483311
-3.58125,-0.001019976505349617,0.03395786794319656
-3.58,-0.001689107705326715,0.04803262497670058
-3.57875,-0.002358238905303813,0.06009670243398973
-3.5775,-0.002358238905303813,0.05574023001885754
-3.57625,-0.001354542105338166,0.03462809446860151
-3.575,-0.0003508453053725187,0.007483920189700909
-3.57375,0.0006528514945931285,-0.01865491430109226
-3.5725,0.001321982694570227,-0.03842659680053838
-3.57125,0.001991113894547325,-0.05618759972376964
-3.57,0.002325679494535874,-0.06691122413024889
-3.56875,0.001991113894547325,-0.04814488141891021
-3.5675,0.0009874170945816775,-0.02502206629243932
-3.56625,-1.627970538396967e-05,0.00346256103727119
-3.565,-0.0006854109053610678,0.0275907159518495
-3.56375,-0.001354542105338166,0.04434637908697334
-3.5625,-0.002023673305315264,0.05607534328156001
-3.56125,-0.002358238905303813,0.06043181569669221
-3.56,-0.001689107705326715,0.0433410392988659
-3.55875,-0.0006854109053610678,0.01820754459618016
-3.5575,0.0003182858946045794,-0.01061219599623283
-3.55625,0.0009874170945816775,-0.03339989786000123
-3.555,0.001656548294558776,-0.04814488141891021
-3.55375,0.002325679494535874,-0.06691122413024889
-3.5525,0.001991113894547325,-0.05518225993566221
-3.55125,0.001321982694570227,-0.0323945580718938
-3.55,0.0003182858946045794,-0.004915270530290724
-3.54875,-0.0006854109053610678,0.02155867722320493
-3.5475,-0.001354542105338166,0.04099524645994856
-3.54625,-0.002023673305315264,0.05272421065453525
-3.545,-0.002358238905303813,0.06210738201020459
-3.54375,-0.002023673305315264,0.05037841781561792
-3.5425,-0.001019976505349617,0.0275907159518495
-3.54125,-1.627970538396967e-05,-0.001229024640563482
-3.54,0.0006528514945931285,-0.02602740608054675
-3.53875,0.001656548294558776,-0.04345329574107553
-3.5375,0.002325679494535874,-0.06356009150322413
-3.53625,0.002325679494535874,-0.06221963845241422
-3.535,0.001656548294558776,-0.04110750290215819
-3.53375,0.0006528514945931285,-0.01630912146217493
-3.5325,-1.627970538396967e-05,0.01184039260483311
-3.53125,-0.001019976505349617,0.03395786794319656
-3.53,-0.001689107705326715,0.04736239845129563
-3.52875,-0.002023673305315264,0.05942647590858478
-3.5275,-0.002358238905303813,0.05507000349345258
-3.52625,-0.001354542105338166,0.03462809446860151
-3.525,-0.0003508453053725187,0.007483920189700909
-3.52375,0.0006528514945931285,-0.01899002756379474
-3.5225,0.001321982694570227,-0.03876171006324086
-3.52125,0.001991113894547325,-0.05685782624917459
-3.52,0.002660245094524423,-0.06758145065565384
-3.51875,0.001991113894547325,-0.04915022120701763
-3.5175,0.001321982694570227,-0.02636251934324923
-3.51625,0.0003182858946045794,0.001116768198353854
-3.515,-0.0006854109053610678,0.02524492311293217
-3.51375,-0.001354542105338166,0.04233569951075847
-3.5125,-0.002023673305315264,0.05473489023075011
-3.51125,-0.002358238905303813,0.05875624938317982
-3.51,-0.001689107705326715,0.04133035972265105
-3.50875,-0.0006854109053610678,0.01552663849456035
-3.5075,0.0003182858946045794,-0.01262287557244769
-3.50625,0.001321982694570227,-0.03474035091081114
-3.505,0.001656548294558776,-0.05082578752053002
-3.50375,0.002660245094524423,-0.07026235675727366
-3.5025,0.002325679494535874,-0.0581982792999845
-3.50125,0.001656548294558776,-0.03608080396162105
-3.5,0.0006528514945931285,-0.008601516420017967
-3.49875,-0.0003508453053725187,0.01787243133347768
-3.4975,-0.001019976505349617,0.03797922709562628
-3.49625,-0.001689107705326715,0.05037841781561792
-3.495,-0.002358238905303813,0.06110204222209716
-3.49375,-0.002023673305315264,0.04937307802751048
-3.4925,-0.001019976505349617,0.02658537616374208
-3.49125,-1.627970538396967e-05,-0.001564137903265958
-3.49,0.0009874170945816775,-0.02636251934324923
-3.48875,0.001656548294558776,-0.04412352226648048
-3.4875,0.002325679494535874,-0.06490054455403403
-3.48625,0.002660245094524423,-0.0638952047659266
-3.485,0.001656548294558776,-0.0424479559529681
-3.48375,0.0009874170945816775,-0.01764957451298483
-3.4825,-1.627970538396967e-05,0.009829713028618245
-3.48125,-0.001019976505349617,0.0319471883669817
-3.48,-0.001354542105338166,0.04602194540048572
-3.47875,-0.002023673305315264,0.06043181569669221
-3.4775,-0.002023673305315264,0.05607534328156001
-3.47625,-0.001354542105338166,0.03563343425670894
-3.475,-0.0003508453053725187,0.009159486503213292
-3.47375,0.0006528514945931285,-0.01697934798757988
-3.4725,0.001321982694570227,-0.03574569069891857
-3.47125,0.001991113894547325,-0.05585248646106716
-3.47,0.002660245094524423,-0.06925701696916622
-3.46875,0.001991113894547325,-0.04982044773242258
-3.4675,0.001321982694570227,-0.0266976326059517
-3.46625,0.0003182858946045794,0.0004465416729489012
-3.465,-0.0006854109053610678,0.02390447006212226
-3.46375,-0.001354542105338166,0.03965479340913866
-3.4625,-0.002023673305315264,0.05540511675615506
-3.46125,-0.002358238905303813,0.06110204222209716
-3.46,-0.001689107705326715,0.04434637908697334
-3.45875,-0.0006854109053610678,0.01988311090969254
-3.4575,0.0003182858946045794,-0.007596176631910537
-3.45625,0.0009874170945816775,-0.02937853870757151
-3.455,0.001656548294558776,-0.04546397531729039
-3.45375,0.002660245094524423,-0.07026235675727366
-3.4525,0.002325679494535874,-0.0581982792999845
-3.45125,0.001656548294558776,-0.03574569069891857
-3.45,0.0006528514945931285,-0.01128242252163778
-3.44875,-1.627970538396967e-05,0.01251061913023806
-3.4475,-0.0006854109053610678,0.03027162205346932
-3.44625,-0.001689107705326715,0.04736239845129563
-3.445,-0.002358238905303813,0.06277760853560954
-3.44375,-0.002023673305315264,0.05205398412913029
-3.4425,-0.001019976505349617,0.03094184857887427
-3.44125,-0.0003508453053725187,0.00647858040159348
-3.44,0.0003182858946045794,-0.01496866841136502
-3.43875,0.0009874170945816775,-0.03205944480919132
-3.4375,0.002325679494535874,-0.06322497824052165
-3.43625,0.002325679494535874,-0.06456543129133155
-3.435,0.001656548294558776,-0.04211284269026563
-3.43375,0.001321982694570227,-0.02803808565676161
-3.4325,0.001321982694570227,-0.0266976326059517
-3.43125,0.001321982694570227,-0.02569229281784427
-3.43,-0.0003508453053725187,0.0205533374350975
-3.42875,-0.001689107705326715,0.05540511675615506
-3.4275,-0.001689107705326715,0.05540511675615506
-3.42625,-0.001354542105338166,0.03898456688373371
-3.425,-0.001019976505349617,0.02960139552806436
-3.42375,-0.001019976505349617,0.02993650879076684
-3.4225,-0.0003508453053725187,0.01184039260483311
-3.42125,0.001656548294558776,-0.04110750290215819
-3.42,0.002660245094524423,-0.06490054455403403
-3.41875,0.001991113894547325,-0.04713954163080277
-3.4175,0.001321982694570227,-0.02904342544486904
-3.41625,0.0009874170945816775,-0.02401672650433189
-3.415,0.001321982694570227,-0.02770297239405913
-3.41375,0.0003182858946045794,0.004132787562676143
-3.4125,-0.001354542105338166,0.049037964764808
-3.41125,-0.002023673305315264,0.05976158917128726
-3.41,-0.001354542105338166,0.04568683213778324
-3.40875,-0.001019976505349617,0.03328764141779161
-3.4075,-0.001019976505349617,0.03060673531617179
-3.40625,-0.001019976505349617,0.02591514963833712
-3.405,0.0009874170945816775,-0.02502206629243932
-3.40375,0.002325679494535874,-0.06255475171511669
-3.4025,0.001991113894547325,-0.0525013538340424
-3.40125,0.001321982694570227,-0.03272967133459628
-3.4,0.0009874170945816775,-0.02401672650433189
-3.39875,0.001321982694570227,-0.0266976326059517
-3.3975,0.0009874170945816775,-0.01329310209785264
-3.39625,-0.001019976505349617,0.0376441138329238
-3.395,-0.002023673305315264,0.06009670243398973
-3.39375,-0.001689107705326715,0.05138375760372534
-3.3925,-0.001354542105338166,0.03596854751941142
-3.39125,-0.001019976505349617,0.03027162205346932
-3.39,-0.001019976505349617,0.0319471883669817
-3.38875,0.0003182858946045794,-0.006255723581100631
-3.3875,0.001991113894547325,-0.05518225993566221
-3.38625,0.002325679494535874,-0.06087918540160431
-3.385,0.001656548294558776,-0.04043727637675324
-3.38375,0.001321982694570227,-0.02703274586865418
-3.3825,0.001321982694570227,-0.02636251934324923
-3.38125,0.001321982694570227,-0.02535717955514179
-3.38,-0.0003508453053725187,0.02155867722320493
-3.37875,-0.001689107705326715,0.05641045654426249
-3.3775,-0.002023673305315264,0.05607534328156001
-3.37625,-0.001354542105338166,0.03998990667184114
-3.375,-0.001019976505349617,0.03094184857887427
-3.37375,-0.001019976505349617,0.03161207510427922
-3.3725,-0.0003508453053725187,0.01150527934213063
-3.37125,0.001656548294558776,-0.04345329574107553
-3.37,0.002660245094524423,-0.06523565781673651
-3.36875,0.001991113894547325,-0.0468044283681003
-3.3675,0.001321982694570227,-0.03004876523297647
-3.36625,0.001321982694570227,-0.02569229281784427
-3.365,0.001321982694570227,-0.02971365197027399
-3.36375,0.0003182858946045794,0.003127447774568714
-3.3625,-0.001354542105338166,0.049037964764808
-3.36125,-0.002023673305315264,0.05976158917128726
-3.36,-0.001354542105338166,0.04568683213778324
-3.35875,-0.001019976505349617,0.03261741489238665
-3.3575,-0.001019976505349617,0.02993650879076684
-3.35625,-0.0006854109053610678,0.02490980985022969
-3.355,0.0009874170945816775,-0.02636251934324923
-3.35375,0.002660245094524423,-0.06423031802862908
-3.3525,0.002325679494535874,-0.05451203341025726
-3.35125,0.001656548294558776,-0.03440523764810866
-3.35,0.001321982694570227,-0.02569229281784427
-3.34875,0.001321982694570227,-0.02837319891946408
-3.3475,0.0009874170945816775,-0.01429844188596007
-3.34625,-0.001019976505349617,0.03730900057022132
-3.345,-0.002023673305315264,0.05976158917128726
-3.34375,-0.001689107705326715,0.05104864434102287
-3.3425,-0.001019976505349617,0.03596854751941142
-3.34125,-0.001019976505349617,0.03060673531617179
-3.34,-0.001019976505349617,0.03228230162968418
-3.33875,0.0003182858946045794,-0.007596176631910537
-3.3375,0.001991113894547325,-0.05719293951187707
-3.33625,0.002325679494535874,-0.06154941192700927
-3.335,0.001656548294558776,-0.04077238963945572
-3.33375,0.001321982694570227,-0.02837319891946408
-3.3325,0.001321982694570227,-0.02803808565676161
-3.33125,0.001321982694570227,-0.02736785913135666
-3.33,-0.0003508453053725187,0.0205533374350975
-3.32875,-0.001689107705326715,0.05540511675615506
-3.3275,-0.001689107705326715,0.05540511675615506
-3.32625,-0.001354542105338166,0.03898456688373371
-3.325,-0.001019976505349617,0.02926628226536189
-3.32375,-0.001019976505349617,0.03027162205346932
-3.3225,-0.0003508453053725187,0.01016482629132072
-3.32125,0.001656548294558776,-0.04512886205458792
-3.32,0.002660245094524423,-0.06724633739295137
-3.31875,0.001991113894547325,-0.04948533446972011
-3.3175,0.001321982694570227,-0.03205944480919132
-3.31625,0.001321982694570227,-0.02803808565676161
-3.315,0.001656548294558776,-0.03172433154648885
-3.31375,0.0003182858946045794,0.002457221249163761
-3.3125,-0.001354542105338166,0.04870285150210553
-3.31125,-0.002023673305315264,0.05942647590858478
-3.31,-0.001689107705326715,0.04501660561237829
-3.30875,-0.001019976505349617,0.03261741489238665
-3.3075,-0.001019976505349617,0.03094184857887427
-3.30625,-0.001019976505349617,0.02558003637563465
-3.305,0.0009874170945816775,-0.02636251934324923
-3.30375,0.002325679494535874,-0.06523565781673651
-3.3025,0.002325679494535874,-0.05518225993566221
-3.30125,0.001656548294558776,-0.03541057743621609
-3.3,0.001321982694570227,-0.02703274586865418
-3.29875,0.001321982694570227,-0.02971365197027399
-3.2975,0.0009874170945816775,-0.01463355514866255
-3.29625,-0.001019976505349617,0.03797922709562628
-3.295,-0.002023673305315264,0.06043181569669221
-3.29375,-0.001689107705326715,0.05205398412913029
-3.2925,-0.001019976505349617,0.0363036607821139
-3.29125,-0.001019976505349617,0.03094184857887427
-3.29,-0.001019976505349617,0.03295252815508913
-3.28875,0.0003182858946045794,-0.007596176631910537
-3.2875,0.002325679494535874,-0.05752805277457955
-3.28625,0.002325679494535874,-0.06188452518971174
-3.285,0.001656548294558776,-0.04110750290215819
-3.28375,0.001321982694570227,-0.02837319891946408
-3.2825,0.001321982694570227,-0.02770297239405913
-3.28125,0.001321982694570227,-0.02602740608054675
-3.28,-0.0003508453053725187,0.02256401701131236
-3.27875,-0.001689107705326715,0.0577509095950724
-3.2775,-0.002023673305315264,0.05741579633236992
-3.27625,-0.001354542105338166,0.04099524645994856
-3.275,-0.001019976505349617,0.03161207510427922
-3.27375,-0.001019976505349617,0.03261741489238665
-3.2725,-0.0003508453053725187,0.01117016607942815
-3.27125,0.001656548294558776,-0.04445863552918296
-3.27,0.002660245094524423,-0.06657611086754642
-3.26875,0.001991113894547325,-0.04847999468161268
-3.2675,0.001321982694570227,-0.03205944480919132
-3.26625,0.001321982694570227,-0.02736785913135666
-3.265,0.001656548294558776,-0.03138921828378637
-3.26375,0.0003182858946045794,0.004132787562676143
-3.2625,-0.001354542105338166,0.05004330455291543
-3.26125,-0.002023673305315264,0.06143715548479964
-3.26,-0.001689107705326715,0.04702728518859314
-3.25875,-0.001019976505349617,0.03462809446860151
-3.2575,-0.001019976505349617,0.03261741489238665
-3.25625,-0.001019976505349617,0.02658537616374208
-3.255,0.0009874170945816775,-0.02703274586865418
-3.25375,0.002660245094524423,-0.06557077107943898
-3.2525,0.001991113894547325,-0.05551737319836469
-3.25125,0.001656548294558776,-0.03608080396162105
-3.25,0.001321982694570227,-0.02736785913135666
-3.24875,0.001656548294558776,-0.03038387849567895
-3.2475,0.0009874170945816775,-0.01362821536055512
-3.24625,-0.001019976505349617,0.03965479340913866
-3.245,-0.002023673305315264,0.06177226874750211
-3.24375,-0.001689107705326715,0.0533944371799402
-3.2425,-0.001354542105338166,0.03797922709562628
-3.24125,-0.001019976505349617,0.03261741489238665
-3.24,-0.001354542105338166,0.03462809446860151
-3.23875,0.0003182858946045794,-0.006590836843803107
-3.2375,0.001991113894547325,-0.05719293951187707
-3.23625,0.002325679494535874,-0.06154941192700927
-3.235,0.001656548294558776,-0.04077238963945572
-3.23375,0.001321982694570227,-0.02736785913135666
-3.2325,0.001321982694570227,-0.02703274586865418
-3.23125,0.001321982694570227,-0.02502206629243932
-3.23,-0.0003508453053725187,0.02423958332482474
-3.22875,-0.002023673305315264,0.06043181569669221
-3.2275,-0.002023673305315264,0.06043181569669221
-3.22625,-0.001354542105338166,0.04401126582427085
-3.225,-0.001019976505349617,0.03496320773130399
-3.22375,-0.001019976505349617,0.03563343425670894
-3.2225,-0.0003508453053725187,0.01217550586753558
-3.22125,0.001656548294558776,-0.04479374879188544
-3.22,0.002660245094524423,-0.06724633739295137
-3.21875,0.001991113894547325,-0.04881510794431516
-3.2175,0.001321982694570227,-0.03205944480919132
-3.21625,0.001321982694570227,-0.02736785913135666
-3.215,0.001656548294558776,-0.0310541050210839
-3.21375,0.0003182858946045794,0.006143467138891003
-3.2125,-0.001689107705326715,0.05305932391723772
-3.21125,-0.002023673305315264,0.06378294832371698
-3.21,-0.001689107705326715,0.04937307802751048
-3.20875,-0.001354542105338166,0.03730900057022132
-3.2075,-0.001354542105338166,0.03496320773130399
-3.20625,-0.001019976505349617,0.02859605573995693
-3.205,0.0009874170945816775,-0.02636251934324923
-3.20375,0.002325679494535874,-0.06590588434214147
-3.2025,0.002325679494535874,-0.05585248646106716
-3.20125,0.001656548294558776,-0.03608080396162105
-3.2,0.001321982694570227,-0.02736785913135666
-3.19875,0.001321982694570227,-0.03004876523297647
-3.1975,0.0009874170945816775,-0.01329310209785264
-3.19625,-0.001019976505349617,0.04099524645994856
-3.195,-0.002023673305315264,0.06344783506101449
-3.19375,-0.002023673305315264,0.05507000349345258
-3.1925,-0.001354542105338166,0.03965479340913866
-3.19125,-0.001019976505349617,0.03462809446860151
-3.19,-0.001354542105338166,0.03563343425670894
-3.18875,0.0003182858946045794,-0.007596176631910537
-3.1875,0.002325679494535874,-0.05987384561349688
-3.18625,0.002325679494535874,-0.06356009150322413
-3.185,0.001656548294558776,-0.04144261616486067
-3.18375,0.001321982694570227,-0.02870831218216656
-3.1825,0.001321982694570227,-0.02803808565676161
-3.18125,0.001321982694570227,-0.02502206629243932
-3.18,-0.0006854109053610678,0.02591514963833712
-3.17875,-0.002023673305315264,0.06210738201020459
-3.1775,-0.002023673305315264,0.06210738201020459
-3.17625,-0.001689107705326715,0.04501660561237829
-3.175,-0.001354542105338166,0.03596854751941142
-3.17375,-0.001354542105338166,0.03697388730751885
-3.1725,-0.0006854109053610678,0.01351595891834549
-3.17125,0.001656548294558776,-0.04512886205458792
-3.17,0.002660245094524423,-0.0682516771810588
-3.16875,0.001991113894547325,-0.04982044773242258
-3.1675,0.001321982694570227,-0.03205944480919132
-3.16625,0.001321982694570227,-0.02736785913135666
-3.165,0.001321982694570227,-0.03138921828378637
-3.16375,-1.627970538396967e-05,0.00647858040159348
-3.1625,-0.001689107705326715,0.05372955044264268
-3.16125,-0.002358238905303813,0.06545851463722936
-3.16,-0.001689107705326715,0.05071353107832039
-3.15875,-0.001354542105338166,0.03797922709562628
-3.1575,-0.001354542105338166,0.03596854751941142
-3.15625,-0.001019976505349617,0.0275907159518495
-3.155,0.0009874170945816775,-0.02904342544486904
-3.15375,0.002660245094524423,-0.06892190370646376
-3.1525,0.002325679494535874,-0.05853339256268698
-3.15125,0.001656548294558776,-0.0380914835378359
-3.15,0.001321982694570227,-0.02971365197027399
-3.14875,0.001321982694570227,-0.0323945580718938
-3.1475,0.0006528514945931285,-0.01362821536055512
-3.14625,-0.001354542105338166,0.04133035972265105
-3.145,-0.002358238905303813,0.06478828811182441
-3.14375,-0.002023673305315264,0.05574023001885754
-3.1425,-0.001354542105338166,0.04032501993454361
-3.14125,-0.001354542105338166,0.03496320773130399
-3.14,-0.001354542105338166,0.03563343425670894
-3.13875,0.0003182858946045794,-0.00927174294542292
-3.1375,0.002325679494535874,-0.06087918540160431
-3.13625,0.002325679494535874,-0.06490054455403403
-3.135,0.001656548294558776,-0.04445863552918296
-3.13375,0.001321982694570227,-0.03138921828378637
-3.1325,0.001321982694570227,-0.03138921828378637
-3.13125,0.001321982694570227,-0.02770297239405913
-3.13,-0.0006854109053610678,0.02423958332482474
-3.12875,-0.002023673305315264,0.06110204222209716
-3.1275,-0.002358238905303813,0.06110204222209716
-3.12625,-0.001689107705326715,0.04468149234967581
-3.125,-0.001354542105338166,0.03563343425670894
-3.12375,-0.001354542105338166,0.03596854751941142
-3.1225,-0.0003508453053725187,0.01083505281672567
-3.12125,0.001656548294558776,-0.04915022120701763
-3.12,0.002660245094524423,-0.07160280980808356
-3.11875,0.001991113894547325,-0.05317158035944735
-3.1175,0.001321982694570227,-0.03507546417351361
-3.11625,0.001321982694570227,-0.0310541050210839
-3.115,0.001321982694570227,-0.03440523764810866
-3.11375,-1.627970538396967e-05,0.004803014088081097
-3.1125,-0.001689107705326715,0.0533944371799402
-3.11125,-0.002358238905303813,0.06478828811182441
-3.11,-0.002023673305315264,0.05037841781561792
-3.10875,-0.001354542105338166,0.03697388730751885
-3.1075,-0.001354542105338166,0.03496320773130399
-3.10625,-0.001019976505349617,0.02658537616374208
-3.105,0.0009874170945816775,-0.03038387849567895
-3.10375,0.002660245094524423,-0.06992724349457118
-3.1025,0.002325679494535874,-0.05886850582538945
-3.10125,0.001656548294558776,-0.03909682332594334
-3.1,0.001321982694570227,-0.03138921828378637
-3.09875,0.001321982694570227,-0.03407012438540619
-3.0975,0.0006528514945931285,-0.01496866841136502
-3.09625,-0.001354542105338166,0.04099524645994856
-3.095,-0.002023673305315264,0.06478828811182441
-3.09375,-0.002023673305315264,0.05607534328156001
-3.0925,-0.001354542105338166,0.04032501993454361
-3.09125,-0.001354542105338166,0.03496320773130399
-3.09,-0.001354542105338166,0.03563343425670894
-3.08875,0.0003182858946045794,-0.01027708273353035
-3.0875,0.002325679494535874,-0.0638952047659266
-3.08625,0.002325679494535874,-0.06758145065565384
-3.085,0.001991113894547325,-0.04613420184269534
-3.08375,0.001656548294558776,-0.03306478459729876
-3.0825,0.001656548294558776,-0.03272967133459628
-3.08125,0.001321982694570227,-0.02870831218216656
-3.08,-0.0006854109053610678,0.02490980985022969
-3.07875,-0.002023673305315264,0.06210738201020459
-3.0775,-0.002023673305315264,0.06244249527290707
-3.07625,-0.001689107705326715,0.04568683213778324
-3.075,-0.001354542105338166,0.0363036607821139
-3.07375,-0.001354542105338166,0.03730900057022132
-3.0725,-0.0003508453053725187,0.01150527934213063
-3.07125,0.001656548294558776,-0.04881510794431516
-3.07,0.002660245094524423,-0.07160280980808356
-3.06875,0.001991113894547325,-0.05317158035944735
-3.0675,0.001321982694570227,-0.03574569069891857
-3.06625,0.001321982694570227,-0.03172433154648885
-3.065,0.001656548294558776,-0.03474035091081114
-3.06375,-1.627970538396967e-05,0.005808353876188527
-3.0625,-0.001689107705326715,0.05507000349345258
-3.06125,-0.002358238905303813,0.06679896768803927
-3.06,-0.001689107705326715,0.05205398412913029
-3.05875,-0.001354542105338166,0.03931968014643619
-3.0575,-0.001354542105338166,0.03663877404481637
-3.05625,-0.001019976505349617,0.0275907159518495
-3.055,0.0009874170945816775,-0.0310541050210839
-3.05375,0.002660245094524423,-0.07193792307078604
-3.0525,0.002325679494535874,-0.06121429866430679
-3.05125,0.001656548294558776,-0.04077238963945572
-3.05,0.001321982694570227,-0.03205944480919132
-3.04875,0.001656548294558776,-0.03440523764810866
-3.0475,0.0006528514945931285,-0.01396332862325759
-3.04625,-0.001354542105338166,0.0433410392988659
-3.045,-0.002358238905303813,0.06746919421344422
-3.04375,-0.002023673305315264,0.0590913626458823
-3.0425,-0.001689107705326715,0.0433410392988659
-3.04125,-0.001354542105338166,0.0376441138329238
-3.04,-0.001354542105338166,0.0376441138329238
-3.03875,0.0003182858946045794,-0.008601516420017967
-3.0375,0.002325679494535874,-0.06255475171511669
-3.03625,0.002325679494535874,-0.06724633739295137
-3.035,0.001991113894547325,-0.04613420184269534
-3.03375,0.001321982694570227,-0.03339989786000123
-3.0325,0.001321982694570227,-0.03306478459729876
-3.03125,0.001321982694570227,-0.02837319891946408
-3.03,-0.0006854109053610678,0.0262502629010396
-3.02875,-0.002358238905303813,0.06411806158641944
-3.0275,-0.002358238905303813,0.06445317484912193
-3.02625,-0.001689107705326715,0.04803262497670058
-3.025,-0.001354542105338166,0.03864945362103123
-3.02375,-0.001354542105338166,0.03931968014643619
-3.0225,-0.0003508453053725187,0.01284573239294053
-3.02125,0.001656548294558776,-0.04847999468161268
-3.02,0.002660245094524423,-0.072608149596191
-3.01875,0.001991113894547325,-0.05451203341025726
-3.0175,0.001321982694570227,-0.036751030487026
-3.01625,0.001321982694570227,-0.03272967133459628
-3.015,0.001321982694570227,-0.03541057743621609
-3.01375,-1.627970538396967e-05,0.006143467138891003
-3.0125,-0.001689107705326715,0.05607534328156001
-3.01125,-0.002358238905303813,0.06847453400155165
-3.01,-0.002023673305315264,0.0533944371799402
-3.00875,-0.001689107705326715,0.04032501993454361
-3.0075,-0.001354542105338166,0.03797922709562628
-3.00625,-0.001354542105338166,0.02859605573995693
-3.005,0.0009874170945816775,-0.03172433154648885
-3.00375,0.002660245094524423,-0.072608149596191
-3.0025,0.002325679494535874,-0.06188452518971174
-3.00125,0.001656548294558776,-0.04211284269026563
-3,0.001321982694570227,-0.03373501112270371
-2.99875,0.001656548294558776,-0.03574569069891857
-2.9975,0.0006528514945931285,-0.01496866841136502
-2.99625,-0.001354542105338166,0.04300592603616343
-2.995,-0.002692804505292362,0.06746919421344422
-2.99375,-0.002358238905303813,0.0590913626458823
-2.9925,-0.001689107705326715,0.04367615256156838
-2.99125,-0.001689107705326715,0.03797922709562628
-2.99,-0.001689107705326715,0.03730900057022132
-2.98875,0.0003182858946045794,-0.0109473092589353
-2.9875,0.002325679494535874,-0.06557077107943898
-2.98625,0.002325679494535874,-0.06992724349457118
-2.985,0.001656548294558776,-0.04881510794431516
-2.98375,0.001656548294558776,-0.03541057743621609
-2.9825,0.001656548294558776,-0.03507546417351361
-2.98125,0.001321982694570227,-0.03038387849567895
-2.98,-0.0006854109053610678,0.02524492311293217
-2.97875,-0.002358238905303813,0.06344783506101449
-2.9775,-0.002358238905303813,0.06545851463722936
-2.97625,-0.001689107705326715,0.04870285150210553
-2.975,-0.001354542105338166,0.03898456688373371
-2.97375,-0.001354542105338166,0.03898456688373371
-2.9725,-0.0006854109053610678,0.01117016607942815
-2.97125,0.001656548294558776,-0.05049067425782754
-2.97,0.002660245094524423,-0.07428371590970338
-2.96875,0.001991113894547325,-0.05618759972376964
-2.9675,0.001656548294558776,-0.0380914835378359
-2.96625,0.001321982694570227,-0.03373501112270371
-2.965,0.001321982694570227,-0.03608080396162105
-2.96375,-1.627970538396967e-05,0.00647858040159348
-2.9625,-0.002023673305315264,0.05708068306966745
-2.96125,-0.002358238905303813,0.06981498705236155
-2.96,-0.002023673305315264,0.05507000349345258
-2.95875,-0.001354542105338166,0.042000586248056
-2.9575,-0.001689107705326715,0.03898456688373371
-2.95625,-0.001354542105338166,0.02792582921455198
-2.955,0.0009874170945816775,-0.03339989786000123
-2.95375,0.002660245094524423,-0.07428371590970338
-2.9525,0.002325679494535874,-0.06288986497781918
-2.95125,0.001656548294558776,-0.04345329574107553
-2.95,0.001321982694570227,-0.03407012438540619
-2.94875,0.001321982694570227,-0.03641591722432352
-2.9475,0.0006528514945931285,-0.01396332862325759
-2.94625,-0.001689107705326715,0.04468149234967581
-2.945,-0.002358238905303813,0.0691447605269566
-2.94375,-0.002358238905303813,0.06076692895939469
-2.9425,-0.001689107705326715,0.04501660561237829
-2.94125,-0.001689107705326715,0.03931968014643619
-2.94,-0.001689107705326715,0.03864945362103123
-2.93875,-1.627970538396967e-05,-0.01061219599623283
-2.9375,0.002325679494535874,-0.06590588434214147
-2.93625,0.002325679494535874,-0.06992724349457118
-2.935,0.001656548294558776,-0.04881510794431516
-2.93375,0.001321982694570227,-0.03574569069891857
-2.9325,0.001321982694570227,-0.03474035091081114
-2.93125,0.001321982694570227,-0.02937853870757151
-2.93,-0.001019976505349617,0.02725560268914703
-2.92875,-0.002358238905303813,0.06612874116263431
-2.9275,-0.002358238905303813,0.06679896768803927
-2.92625,-0.002023673305315264,0.05004330455291543
-2.925,-0.001689107705326715,0.04066013319724609
-2.92375,-0.001689107705326715,0.04099524645994856
-2.9225,-0.0006854109053610678,0.01184039260483311
-2.92125,0.001656548294558776,-0.05116090078323249
-2.92,0.002660245094524423,-0.07428371590970338
-2.91875,0.001991113894547325,-0.05618759972376964
-2.9175,0.001321982694570227,-0.03876171006324086
-2.91625,0.001321982694570227,-0.03339989786000123
-2.915,0.001321982694570227,-0.03608080396162105
-2.91375,-1.627970538396967e-05,0.007483920189700909
-2.9125,-0.002023673305315264,0.05842113612047735
-2.91125,-0.002692804505292362,0.07082032684046899
-2.91,-0.002023673305315264,0.05607534328156001
-2.90875,-0.001689107705326715,0.04300592603616343
-2.9075,-0.001689107705326715,0.04032501993454361
-2.90625,-0.001354542105338166,0.02993650879076684
-2.905,0.0009874170945816775,-0.03205944480919132
-2.90375,0.002660245094524423,-0.07428371590970338
-2.9025,0.002325679494535874,-0.06288986497781918
-2.90125,0.001656548294558776,-0.0424479559529681
-2.9,0.001321982694570227,-0.03407012438540619
-2.89875,0.001656548294558776,-0.03608080396162105
-2.8975,0.0006528514945931285,-0.01362821536055512
-2.89625,-0.001354542105338166,0.04635705866318819
-2.895,-0.002692804505292362,0.07115544010317146
-2.89375,-0.002358238905303813,0.06210738201020459
-2.8925,-0.001689107705326715,0.04602194540048572
-2.89125,-0.001689107705326715,0.03998990667184114
-2.89,-0.001689107705326715,0.03931968014643619
-2.88875,-1.627970538396967e-05,-0.01161753578434026
-2.8875,0.002325679494535874,-0.06724633739295137
-2.88625,0.002660245094524423,-0.07126769654538109
-2.885,0.001991113894547325,-0.05049067425782754
-2.88375,0.001656548294558776,-0.036751030487026
-2.8825,0.001321982694570227,-0.03541057743621609
-2.88125,0.001321982694570227,-0.02937853870757151
-2.88,-0.001019976505349617,0.02826094247725446
-2.87875,-0.002358238905303813,0.06746919421344422
-2.8775,-0.002358238905303813,0.0678043074761467
-2.87625,-0.002023673305315264,0.05071353107832039
-2.875,-0.001689107705326715,0.04099524645994856
-2.87375,-0.001689107705326715,0.04099524645994856
-2.8725,-0.0006854109053610678,0.01016482629132072
-2.87125,0.001991113894547325,-0.05417692014755478
-2.87,0.002660245094524423,-0.07662950874862071
-2.86875,0.001991113894547325,-0.05752805277457955
-2.8675,0.001321982694570227,-0.03976704985134829
-2.86625,0.001321982694570227,-0.03474035091081114
-2.865,0.001656548294558776,-0.03708614374972848
-2.86375,-1.627970538396967e-05,0.007483920189700909
-2.8625,-0.002023673305315264,0.0590913626458823
-2.86125,-0.002692804505292362,0.07115544010317146
-2.86,-0.002023673305315264,0.05641045654426249
-2.85875,-0.001689107705326715,0.04233569951075847
-2.8575,-0.001689107705326715,0.03965479340913866
-2.85625,-0.001354542105338166,0.02792582921455198
-2.855,0.0009874170945816775,-0.03507546417351361
-2.85375,0.002660245094524423,-0.07729973527402567
-2.8525,0.002325679494535874,-0.06590588434214147
-2.85125,0.001656548294558776,-0.04579908857999287
-2.85,0.001656548294558776,-0.03708614374972848
-2.84875,0.001656548294558776,-0.03909682332594334
-2.8475,0.0006528514945931285,-0.0153037816740675
-2.84625,-0.001354542105338166,0.04501660561237829
-2.845,-0.002358238905303813,0.06947987378965907
-2.84375,-0.002358238905303813,0.06110204222209716
-2.8425,-0.001689107705326715,0.04535171887508076
-2.84125,-0.001689107705326715,0.03898456688373371
-2.84,-0.001689107705326715,0.03797922709562628
-2.83875,0.0003182858946045794,-0.01329310209785264
-2.8375,0.002325679494535874,-0.06925701696916622
-2.83625,0.002325679494535874,-0.07327837612159595
-2.835,0.001991113894547325,-0.05216624057133992
-2.83375,0.001321982694570227,-0.03876171006324086
-2.8325,0.001656548294558776,-0.03775637027513343
-2.83125,0.001321982694570227,-0.0310541050210839
-2.83,-0.0006854109053610678,0.02692048942644455
-2.82875,-0.002358238905303813,0.06612874116263431
-2.8275,-0.002358238905303813,0.06679896768803927
-2.82625,-0.002023673305315264,0.05004330455291543
-2.825,-0.001689107705326715,0.04032501993454361
-2.82375,-0.001689107705326715,0.03998990667184114
-2.8225,-0.0006854109053610678,0.01016482629132072
-2.82125,0.001656548294558776,-0.05384180688485231
-2.82,0.002660245094524423,-0.07729973527402567
-2.81875,0.001991113894547325,-0.05920361908809193
-2.8175,0.001656548294558776,-0.04177772942756315
-2.81625,0.001321982694570227,-0.03708614374972848
-2.815,0.001656548294558776,-0.03842659680053838
-2.81375,-1.627970538396967e-05,0.007148806926998433
-2.8125,-0.002023673305315264,0.05875624938317982
-2.81125,-0.002692804505292362,0.07149055336587394
-2.81,-0.002023673305315264,0.05607534328156001
-2.80875,-0.001689107705326715,0.04300592603616343
-2.8075,-0.001689107705326715,0.04032501993454361
-2.80625,-0.001354542105338166,0.02926628226536189
-2.805,0.0009874170945816775,-0.03474035091081114
-2.80375,0.002660245094524423,-0.07729973527402567
-2.8025,0.002325679494535874,-0.06590588434214147
-2.80125,0.001656548294558776,-0.04546397531729039
-2.8,0.001321982694570227,-0.036751030487026
-2.79875,0.001656548294558776,-0.03876171006324086
-2.7975,0.0006528514945931285,-0.01329310209785264
-2.79625,-0.001689107705326715,0.04736239845129563
-2.795,-0.002692804505292362,0.07249589315398136
-2.79375,-0.002358238905303813,0.06344783506101449
-2.7925,-0.001689107705326715,0.04702728518859314
-2.79125,-0.001689107705326715,0.04099524645994856
-2.79,-0.001689107705326715,0.03931968014643619
-2.78875,0.0003182858946045794,-0.01262287557244769
-2.7875,0.002325679494535874,-0.06892190370646376
-2.78625,0.002660245094524423,-0.072608149596191
-2.785,0.001656548294558776,-0.05183112730863745
-2.78375,0.001321982694570227,-0.0380914835378359
-2.7825,0.001656548294558776,-0.036751030487026
-2.78125,0.001321982694570227,-0.02971365197027399
-2.78,-0.0006854109053610678,0.02926628226536189
-2.77875,-0.002358238905303813,0.0691447605269566
-2.7775,-0.002692804505292362,0.06981498705236155
-2.77625,-0.002023673305315264,0.05238909739183277
-2.775,-0.001689107705326715,0.04300592603616343
-2.77375,-0.001689107705326715,0.04300592603616343
-2.7725,-0.0006854109053610678,0.01217550586753558
-2.77125,0.001656548294558776,-0.05283646709674487
-2.77,0.002660245094524423,-0.07696462201132319
-2.76875,0.001991113894547325,-0.05752805277457955
-2.7675,0.001656548294558776,-0.04010216311405077
-2.76625,0.001321982694570227,-0.03574569069891857
-2.765,0.001656548294558776,-0.03742125701243095
-2.76375,-1.627970538396967e-05,0.008489259977808339
-2.7625,-0.002023673305315264,0.06009670243398973
-2.76125,-0.002692804505292362,0.07249589315398136
-2.76,-0.002358238905303813,0.05741579633236992
-2.75875,-0.001689107705326715,0.04434637908697334
-2.7575,-0.001689107705326715,0.04166547298535352
-2.75625,-0.001354542105338166,0.02926628226536189
-2.755,0.0009874170945816775,-0.03507546417351361
-2.75375,0.002660245094524423,-0.07729973527402567
-2.7525,0.002325679494535874,-0.06590588434214147
-2.75125,0.001656548294558776,-0.04512886205458792
-2.75,0.001321982694570227,-0.03608080396162105
-2.74875,0.001656548294558776,-0.03842659680053838
-2.7475,0.0006528514945931285,-0.01295798883515016
-2.74625,-0.001689107705326715,0.04803262497670058
-2.745,-0.002692804505292362,0.07216077989127889
-2.74375,-0.002358238905303813,0.06277760853560954
-2.7425,-0.002023673305315264,0.04635705866318819
-2.74125,-0.001689107705326715,0.04032501993454361
-2.74,-0.001689107705326715,0.03831434035832876
-2.73875,0.0003182858946045794,-0.01463355514866255
-2.7375,0.002325679494535874,-0.07026235675727366
-2.73625,0.002660245094524423,-0.072608149596191
-2.735,0.001991113894547325,-0.05116090078323249
-2.73375,0.001321982694570227,-0.03775637027513343
-2.7325,0.001321982694570227,-0.03708614374972848
-2.73125,0.001321982694570227,-0.02971365197027399
-2.73,-0.001019976505349617,0.02893116900265941
-2.72875,-0.002358238905303813,0.06746919421344422
-2.7275,-0.002692804505292362,0.0678043074761467
-2.72625,-0.002023673305315264,0.05071353107832039
-2.725,-0.001689107705326715,0.04099524645994856
-2.72375,-0.001689107705326715,0.04066013319724609
-2.7225,-0.0006854109053610678,0.009159486503213292
-2.72125,0.001991113894547325,-0.05518225993566221
-2.72,0.002660245094524423,-0.07763484853672814
-2.71875,0.001991113894547325,-0.05886850582538945
-2.7175,0.001656548294558776,-0.04110750290215819
-2.71625,0.001321982694570227,-0.03742125701243095
-2.715,0.001656548294558776,-0.03943193658864581
-2.71375,-1.627970538396967e-05,0.00647858040159348
-2.7125,-0.002023673305315264,0.0577509095950724
-2.71125,-0.002692804505292362,0.07048521357776651
-2.71,-0.002358238905303813,0.05540511675615506
-2.70875,-0.001689107705326715,0.04233569951075847
-2.7075,-0.001689107705326715,0.03931968014643619
-2.70625,-0.001354542105338166,0.02692048942644455
-2.705,0.0009874170945816775,-0.03608080396162105
-2.70375,0.002660245094524423,-0.07763484853672814
-2.7025,0.002325679494535874,-0.06557077107943898
-2.70125,0.001656548294558776,-0.04546397531729039
-2.7,0.001321982694570227,-0.036751030487026
-2.69875,0.001656548294558776,-0.03876171006324086
-2.6975,0.0006528514945931285,-0.01429844188596007
-2.69625,-0.001689107705326715,0.04602194540048572
-2.695,-0.002692804505292362,0.07048521357776651
-2.69375,-0.002358238905303813,0.06143715548479964
-2.6925,-0.001689107705326715,0.04602194540048572
-2.69125,-0.001689107705326715,0.04032501993454361
-2.69,-0.001689107705326715,0.03898456688373371
-2.68875,0.0003182858946045794,-0.01262287557244769
-2.6875,0.002325679494535874,-0.06892190370646376
-2.68625,0.002325679494535874,-0.07227303633348851
-2.685,0.001991113894547325,-0.05116090078323249
-2.68375,0.001321982694570227,-0.03742125701243095
-2.6825,0.001321982694570227,-0.03641591722432352
-2.68125,0.0009874170945816775,-0.02904342544486904
-2.68,-0.001019976505349617,0.02893116900265941
-2.67875,-0.002358238905303813,0.06679896768803927
-2.6775,-0.002358238905303813,0.06679896768803927
-2.67625,-0.001689107705326715,0.04970819129021296
-2.675,-0.001354542105338166,0.04032501993454361
-2.67375,-0.001689107705326715,0.04032501993454361
-2.6725,-0.0006854109053610678,0.008824373240510816
-2.67125,0.001656548294558776,-0.05417692014755478
-2.67,0.002660245094524423,-0.07562416896051329
-2.66875,0.001991113894547325,-0.05618759972376964
-2.6675,0.001321982694570227,-0.03976704985134829
-2.66625,0.001321982694570227,-0.03541057743621609
-2.665,0.001656548294558776,-0.03742125701243095
-2.66375,-1.627970538396967e-05,0.007483920189700909
-2.6625,-0.002023673305315264,0.0577509095950724
-2.66125,-0.002358238905303813,0.06947987378965907
-2.66,-0.002023673305315264,0.05439977696804763
-2.65875,-0.001689107705326715,0.04133035972265105
-2.6575,-0.001354542105338166,0.03864945362103123
-2.65625,-0.001354542105338166,0.0275907159518495
-2.655,0.0009874170945816775,-0.03507546417351361
-2.65375,0.002660245094524423,-0.07629439548591824
-2.6525,0.002325679494535874,-0.06423031802862908
-2.65125,0.001656548294558776,-0.04412352226648048
-2.65,0.001321982694570227,-0.03541057743621609
-2.64875,0.001656548294558776,-0.03775637027513343
-2.6475,0.0006528514945931285,-0.01329310209785264
-2.64625,-0.001354542105338166,0.04501660561237829
-2.645,-0.002358238905303813,0.0691447605269566
-2.64375,-0.002358238905303813,0.06009670243398973
-2.6425,-0.001689107705326715,0.04468149234967581
-2.64125,-0.001689107705326715,0.03898456688373371
-2.64,-0.001689107705326715,0.03831434035832876
-2.63875,0.0003182858946045794,-0.01228776230974521
-2.6375,0.002325679494535874,-0.06657611086754642
-2.63625,0.002325679494535874,-0.06892190370646376
-2.635,0.001656548294558776,-0.04814488141891021
-2.63375,0.001321982694570227,-0.03541057743621609
-2.6325,0.001321982694570227,-0.03507546417351361
-2.63125,0.001321982694570227,-0.02803808565676161
-2.63,-0.0006854109053610678,0.02893116900265941
-2.62875,-0.002358238905303813,0.06579362789993183
-2.6275,-0.002358238905303813,0.06512340137452688
-2.62625,-0.001689107705326715,0.049037964764808
-2.625,-0.001689107705326715,0.03965479340913866
-2.62375,-0.001689107705326715,0.03998990667184114
-2.6225,-0.0006854109053610678,0.009159486503213292
-2.62125,0.001656548294558776,-0.0525013538340424
-2.62,0.002660245094524423,-0.07327837612159595
-2.61875,0.001991113894547325,-0.05451203341025726
-2.6175,0.001321982694570227,-0.03775637027513343
-2.61625,0.001321982694570227,-0.03339989786000123
-2.615,0.001321982694570227,-0.03541057743621609
-2.61375,-1.627970538396967e-05,0.008154146715105863
-2.6125,-0.002023673305315264,0.05741579633236992
-2.61125,-0.002692804505292362,0.06813942073884917
-2.61,-0.002023673305315264,0.05372955044264268
-2.60875,-0.001689107705326715,0.04099524645994856
-2.6075,-0.001689107705326715,0.03831434035832876
-2.60625,-0.001354542105338166,0.02658537616374208
-2.605,0.0009874170945816775,-0.03407012438540619
-2.60375,0.002325679494535874,-0.07294326285889347
-2.6025,0.001991113894547325,-0.06054407213890184
-2.60125,0.001321982694570227,-0.04144261616486067
-2.6,0.001321982694570227,-0.03339989786000123
-2.59875,0.001321982694570227,-0.03541057743621609
-2.5975,0.0003182858946045794,-0.01262287557244769
-2.59625,-0.001689107705326715,0.04468149234967581
-2.595,-0.002692804505292362,0.06713408095074173
-2.59375,-0.002358238905303813,0.0577509095950724
-2.5925,-0.001689107705326715,0.04267081277346095
-2.59125,-0.001689107705326715,0.03697388730751885
-2.59,-0.001689107705326715,0.03529832099400647
-2.58875,-1.627970538396967e-05,-0.0153037816740675
-2.5875,0.001991113894547325,-0.0682516771810588
-2.58625,0.002325679494535874,-0.06858679044376127
-2.585,0.001656548294558776,-0.04747465489350525
-2.58375,0.001321982694570227,-0.03507546417351361
-2.5825,0.001321982694570227,-0.03440523764810866
-2.58125,0.0009874170945816775,-0.02770297239405913
-2.58,-0.001019976505349617,0.02792582921455198
-2.57875,-0.002358238905303813,0.06311272179831202
-2.5775,-0.002358238905303813,0.06277760853560954
-2.57625,-0.002023673305315264,0.04602194540048572
-2.575,-0.001689107705326715,0.0376441138329238
-2.57375,-0.001689107705326715,0.03797922709562628
-2.5725,-0.0006854109053610678,0.008489259977808339
-2.57125,0.001656548294558776,-0.05183112730863745
-2.57,0.002325679494535874,-0.07193792307078604
-2.56875,0.001656548294558776,-0.0525013538340424
-2.5675,0.001321982694570227,-0.03641591722432352
-2.56625,0.001321982694570227,-0.03272967133459628
-2.565,0.001321982694570227,-0.03507546417351361
-2.56375,-0.0003508453053725187,0.007819033452403385
-2.5625,-0.002023673305315264,0.05574023001885754
-2.56125,-0.002358238905303813,0.06612874116263431
-2.56,-0.002023673305315264,0.05071353107832039
-2.55875,-0.001689107705326715,0.03831434035832876
-2.5575,-0.001354542105338166,0.03563343425670894
-2.55625,-0.001354542105338166,0.02490980985022969
-2.555,0.0009874170945816775,-0.03407012438540619
-2.55375,0.002325679494535874,-0.07294326285889347
-2.5525,0.001991113894547325,-0.06154941192700927
-2.55125,0.001321982694570227,-0.04211284269026563
-2.55,0.001321982694570227,-0.03373501112270371
-2.54875,0.001321982694570227,-0.03608080396162105
-2.5475,0.0006528514945931285,-0.01295798883515016
-2.54625,-0.001354542105338166,0.04367615256156838
-2.545,-0.002358238905303813,0.06579362789993183
-2.54375,-0.002023673305315264,0.05674556980696497
-2.5425,-0.001689107705326715,0.04166547298535352
-2.54125,-0.001689107705326715,0.0363036607821139
-2.54,-0.001689107705326715,0.03529832099400647
-2.53875,0.0003182858946045794,-0.01496866841136502
-2.5375,0.002325679494535874,-0.06657611086754642
-2.53625,0.002325679494535874,-0.06724633739295137
-2.535,0.001656548294558776,-0.04747465489350525
-2.53375,0.001321982694570227,-0.03474035091081114
-2.5325,0.001321982694570227,-0.03440523764810866
-2.53125,0.001321982694570227,-0.02770297239405913
-2.53,-0.001019976505349617,0.02826094247725446
-2.52875,-0.002358238905303813,0.06445317484912193
-2.5275,-0.002358238905303813,0.06311272179831202
-2.52625,-0.002023673305315264,0.04635705866318819
-2.525,-0.001689107705326715,0.0376441138329238
-2.52375,-0.001689107705326715,0.03797922709562628
-2.5225,-0.0006854109053610678,0.007483920189700909
-2.52125,0.001656548294558776,-0.05451203341025726
-2.52,0.002660245094524423,-0.07461882917240585
-2.51875,0.001991113894547325,-0.05551737319836469
-2.5175,0.001321982694570227,-0.03909682332594334
-2.51625,0.001321982694570227,-0.03541057743621609
-2.515,0.001321982694570227,-0.03708614374972848
-2.51375,-1.627970538396967e-05,0.007819033452403385
-2.5125,-0.002023673305315264,0.05741579633236992
-2.51125,-0.002358238905303813,0.06880964726425412
-2.51,-0.002023673305315264,0.05406466370534516
-2.50875,-0.001689107705326715,0.04099524645994856
-2.5075,-0.001689107705326715,0.03864945362103123
-2.50625,-0.001354542105338166,0.02725560268914703
-2.505,0.0009874170945816775,-0.03474035091081114
-2.50375,0.002325679494535874,-0.0739486026470009
-2.5025,0.001991113894547325,-0.06288986497781918
-2.50125,0.001656548294558776,-0.04378840900377801
-2.5,0.001321982694570227,-0.03574569069891857
-2.49875,0.001656548294558776,-0.03842659680053838
-2.4975,0.0006528514945931285,-0.01329310209785264
-2.49625,-0.001354542105338166,0.04501660561237829
-2.495,-0.002358238905303813,0.06847453400155165
-2.49375,-0.002358238905303813,0.0590913626458823
-2.4925,-0.001689107705326715,0.04367615256156838
-2.49125,-0.001689107705326715,0.03797922709562628
-2.49,-0.001689107705326715,0.03563343425670894
-2.48875,0.0003182858946045794,-0.01597400819947245
-2.4875,0.002325679494535874,-0.07026235675727366
-2.48625,0.002660245094524423,-0.072608149596191
-2.485,0.001991113894547325,-0.05149601404593497
-2.48375,0.001321982694570227,-0.03876171006324086
-2.4825,0.001321982694570227,-0.03842659680053838
-2.48125,0.001321982694570227,-0.03071899175838142
-2.48,-0.0006854109053610678,0.02792582921455198
-2.47875,-0.002358238905303813,0.06579362789993183
-2.4775,-0.002358238905303813,0.06478828811182441
-2.47625,-0.002023673305315264,0.04836773823940305
-2.475,-0.001689107705326715,0.03898456688373371
-2.47375,-0.001689107705326715,0.03898456688373371
-2.4725,-0.0003508453053725187,0.005808353876188527
-2.47125,0.001991113894547325,-0.05719293951187707
-2.47,0.002660245094524423,-0.07897530158753804
-2.46875,0.002325679494535874,-0.06054407213890184
-2.4675,0.001656548294558776,-0.04311818247837305
-2.46625,0.001656548294558776,-0.03909682332594334
-2.465,0.001656548294558776,-0.04043727637675324
-2.46375,-1.627970538396967e-05,0.007148806926998433
-2.4625,-0.002023673305315264,0.0577509095950724
-2.46125,-0.002358238905303813,0.06847453400155165
-2.46,-0.002023673305315264,0.05305932391723772
-2.45875,-0.001354542105338166,0.03998990667184114
-2.4575,-0.001354542105338166,0.0376441138329238
-2.45625,-0.001019976505349617,0.02490980985022969
-2.455,0.001321982694570227,-0.03909682332594334
-2.45375,0.002660245094524423,-0.079645528112943
-2.4525,0.002325679494535874,-0.06724633739295137
-2.45125,0.001656548294558776,-0.0468044283681003
-2.45,0.001656548294558776,-0.03909682332594334
-2.44875,0.001656548294558776,-0.04144261616486067
-2.4475,0.0009874170945816775,-0.01463355514866255
-2.44625,-0.001354542105338166,0.04602194540048572
-2.445,-0.002358238905303813,0.06947987378965907
-2.44375,-0.002023673305315264,0.06009670243398973
-2.4425,-0.001689107705326715,0.04468149234967581
-2.44125,-0.001689107705326715,0.03898456688373371
-2.44,-0.001689107705326715,0.0376441138329238
-2.43875,0.0003182858946045794,-0.01463355514866255
-2.4375,0.002325679494535874,-0.07026235675727366
-2.43625,0.002660245094524423,-0.072608149596191
-2.435,0.001991113894547325,-0.05183112730863745
-2.43375,0.001656548294558776,-0.03909682332594334
-2.4325,0.001656548294558776,-0.03842659680053838
-2.43125,0.001321982694570227,-0.03038387849567895
-2.43,-0.0006854109053610678,0.02893116900265941
-2.42875,-0.002358238905303813,0.06679896768803927
-2.4275,-0.002358238905303813,0.06579362789993183
-2.42625,-0.001689107705326715,0.049037964764808
-2.425,-0.001354542105338166,0.03998990667184114
-2.42375,-0.001689107705326715,0.04032501993454361
-2.4225,-0.0003508453053725187,0.00647858040159348
-2.42125,0.001991113894547325,-0.0581982792999845
-2.42,0.002994810694512972,-0.07864018832483557
-2.41875,0.002325679494535874,-0.05886850582538945
-2.4175,0.001656548294558776,-0.04144261616486067
-2.41625,0.001656548294558776,-0.03708614374972848
-2.415,0.001656548294558776,-0.03842659680053838
-2.41375,-1.627970538396967e-05,0.008824373240510816
-2.4125,-0.002023673305315264,0.05942647590858478
-2.41125,-0.002358238905303813,0.07048521357776651
-2.41,-0.002023673305315264,0.05574023001885754
-2.40875,-0.001354542105338166,0.04267081277346095
-2.4075,-0.001354542105338166,0.04032501993454361
-2.40625,-0.001019976505349617,0.02725560268914703
-2.405,0.001321982694570227,-0.03641591722432352
-2.40375,0.002660245094524423,-0.07629439548591824
-2.4025,0.002325679494535874,-0.0638952047659266
-2.40125,0.001656548294558776,-0.04445863552918296
-2.4,0.001656548294558776,-0.03608080396162105
-2.39875,0.001656548294558776,-0.03842659680053838
-2.3975,0.0006528514945931285,-0.01161753578434026
-2.39625,-0.001354542105338166,0.04803262497670058
-2.395,-0.002358238905303813,0.07082032684046899
-2.39375,-0.002358238905303813,0.06177226874750211
-2.3925,-0.001689107705326715,0.04669217192589067
-2.39125,-0.001689107705326715,0.04166547298535352
-2.39,-0.001354542105338166,0.03931968014643619
-2.38875,0.0003182858946045794,-0.0153037816740675
-2.3875,0.002325679494535874,-0.07059747001997613
-2.38625,0.002660245094524423,-0.07160280980808356
-2.385,0.001991113894547325,-0.05049067425782754
-2.38375,0.001656548294558776,-0.03775637027513343
-2.3825,0.001656548294558776,-0.03708614374972848
-2.38125,0.001321982694570227,-0.02837319891946408
-2.38,-0.0006854109053610678,0.03027162205346932
-2.37875,-0.002358238905303813,0.06847453400155165
-2.3775,-0.002358238905303813,0.06713408095074173
-2.37625,-0.001689107705326715,0.05004330455291543
-2.375,-0.001354542105338166,0.04099524645994856
-2.37375,-0.001689107705326715,0.04099524645994856
-2.3725,-0.0003508453053725187,0.007148806926998433
-2.37125,0.001991113894547325,-0.05618759972376964
-2.37,0.002660245094524423,-0.07662950874862071
-2.36875,0.002325679494535874,-0.05719293951187707
-2.3675,0.001656548294558776,-0.04077238963945572
-2.36625,0.001656548294558776,-0.036751030487026
-2.365,0.001656548294558776,-0.03775637027513343
-2.36375,-1.627970538396967e-05,0.009494599765915769
-2.3625,-0.002023673305315264,0.05976158917128726
-2.36125,-0.002358238905303813,0.07082032684046899
-2.36,-0.002023673305315264,0.05540511675615506
-2.35875,-0.001354542105338166,0.04300592603616343
-2.3575,-0.001354542105338166,0.04066013319724609
-2.35625,-0.001019976505349617,0.02692048942644455
-2.355,0.001321982694570227,-0.0380914835378359
-2.35375,0.002994810694512972,-0.07830507506213309
-2.3525,0.002660245094524423,-0.06590588434214147
-2.35125,0.001991113894547325,-0.04579908857999287
-2.35,0.001656548294558776,-0.03742125701243095
-2.34875,0.001656548294558776,-0.03943193658864581
-2.3475,0.0009874170945816775,-0.01161753578434026
-2.34625,-0.001354542105338166,0.04803262497670058
-2.345,-0.002358238905303813,0.07082032684046899
-2.34375,-0.002023673305315264,0.06076692895939469
-2.3425,-0.001689107705326715,0.04535171887508076
-2.34125,-0.001354542105338166,0.03998990667184114
-2.34,-0.001354542105338166,0.03797922709562628
-2.33875,0.0006528514945931285,-0.01597400819947245
-2.3375,0.002660245094524423,-0.07026235675727366
-2.33625,0.002660245094524423,-0.07160280980808356
-2.335,0.001991113894547325,-0.05049067425782754
-2.33375,0.001656548294558776,-0.03775637027513343
-2.3325,0.001656548294558776,-0.03708614374972848
-2.33125,0.001321982694570227,-0.02837319891946408
-2.33,-0.0006854109053610678,0.03060673531617179
-2.32875,-0.002358238905303813,0.06847453400155165
-2.3275,-0.002358238905303813,0.06679896768803927
-2.32625,-0.001689107705326715,0.05004330455291543
-2.325,-0.001354542105338166,0.04133035972265105
-2.32375,-0.001354542105338166,0.04166547298535352
-2.3225,-0.0003508453053725187,0.007483920189700909
-2.32125,0.001991113894547325,-0.05652271298647212
-2.32,0.002994810694512972,-0.07763484853672814
-2.31875,0.002325679494535874,-0.05786316603728203
-2.3175,0.001991113894547325,-0.04043727637675324
-2.31625,0.001656548294558776,-0.03641591722432352
-2.315,0.001656548294558776,-0.036751030487026
-2.31375,-1.627970538396967e-05,0.01117016607942815
-2.3125,-0.001689107705326715,0.06110204222209716
-2.31125,-0.002358238905303813,0.07149055336587394
-2.31,-0.002023673305315264,0.05607534328156001
-2.30875,-0.001354542105338166,0.04367615256156838
-2.3075,-0.001354542105338166,0.04099524645994856
-2.30625,-0.001019976505349617,0.02725560268914703
-2.305,0.001321982694570227,-0.03742125701243095
-2.30375,0.002660245094524423,-0.07662950874862071
-2.3025,0.002660245094524423,-0.06356009150322413
-2.30125,0.001991113894547325,-0.04345329574107553
-2.3,0.001656548294558776,-0.03541057743621609
-2.29875,0.001656548294558776,-0.03742125701243095
-2.2975,0.0006528514945931285,-0.009941969470827873
-2.29625,-0.001354542105338166,0.04970819129021296
-2.295,-0.002358238905303813,0.07249589315398136
-2.29375,-0.002023673305315264,0.06244249527290707
-2.2925,-0.001689107705326715,0.04702728518859314
-2.29125,-0.001354542105338166,0.04133035972265105
-2.29,-0.001354542105338166,0.03931968014643619
-2.28875,0.0006528514945931285,-0.01463355514866255
-2.2875,0.002660245094524423,-0.06959213023186871
-2.28625,0.002660245094524423,-0.07093258328267861
-2.285,0.001991113894547325,-0.04948533446972011
-2.28375,0.001656548294558776,-0.03708614374972848
-2.2825,0.001656548294558776,-0.036751030487026
-2.28125,0.001321982694570227,-0.02736785913135666
-2.28,-0.001019976505349617,0.03261741489238665
-2.27875,-0.002358238905303813,0.06981498705236155
-2.2775,-0.002358238905303813,0.06847453400155165
-2.27625,-0.001689107705326715,0.05138375760372534
-2.275,-0.001354542105338166,0.04233569951075847
-2.27375,-0.001689107705326715,0.04233569951075847
-2.2725,-0.0003508453053725187,0.007483920189700909
-2.27125,0.001991113894547325,-0.05652271298647212
-2.27,0.002660245094524423,-0.07662950874862071
-2.26875,0.002325679494535874,-0.05719293951187707
-2.2675,0.001656548294558776,-0.03976704985134829
-2.26625,0.001656548294558776,-0.03541057743621609
-2.265,0.001656548294558776,-0.036751030487026
-2.26375,-1.627970538396967e-05,0.01184039260483311
-2.2625,-0.002023673305315264,0.06177226874750211
-2.26125,-0.002358238905303813,0.07149055336587394
-2.26,-0.002023673305315264,0.05574023001885754
-2.25875,-0.001354542105338166,0.04300592603616343
-2.2575,-0.001354542105338166,0.04099524645994856
-2.25625,-0.001019976505349617,0.02558003637563465
-2.255,0.001321982694570227,-0.03909682332594334
-2.25375,0.002994810694512972,-0.07796996179943062
-2.2525,0.002325679494535874,-0.06456543129133155
-2.25125,0.001991113894547325,-0.04412352226648048
-2.25,0.001656548294558776,-0.03608080396162105
-2.24875,0.001991113894547325,-0.03842659680053838
-2.2475,0.0006528514945931285,-0.009606856208125396
-2.24625,-0.001354542105338166,0.05004330455291543
-2.245,-0.002358238905303813,0.07283100641668384
-2.24375,-0.002023673305315264,0.06244249527290707
-2.2425,-0.001689107705326715,0.04702728518859314
-2.24125,-0.001354542105338166,0.04133035972265105
-2.24,-0.001354542105338166,0.03831434035832876
-2.23875,0.0003182858946045794,-0.01597400819947245
-2.2375,0.002660245094524423,-0.07059747001997613
-2.23625,0.002660245094524423,-0.07160280980808356
-2.235,0.001991113894547325,-0.05049067425782754
-2.23375,0.001656548294558776,-0.0380914835378359
-2.2325,0.001656548294558776,-0.03742125701243095
-2.23125,0.001321982694570227,-0.02770297239405913
-2.23,-0.0006854109053610678,0.0319471883669817
-2.22875,-0.002358238905303813,0.06880964726425412
-2.2275,-0.002358238905303813,0.06713408095074173
-2.22625,-0.001689107705326715,0.05037841781561792
-2.225,-0.001354542105338166,0.04099524645994856
-2.22375,-0.001354542105338166,0.04099524645994856
-2.2225,-1.627970538396967e-05,0.00547324061348605
-2.22125,0.002325679494535874,-0.05786316603728203
-2.22,0.002994810694512972,-0.07763484853672814
-2.21875,0.002325679494535874,-0.05786316603728203
-2.2175,0.001656548294558776,-0.04077238963945572
-2.21625,0.001656548294558776,-0.036751030487026
-2.215,0.001656548294558776,-0.03742125701243095
-2.21375,-1.627970538396967e-05,0.01217550586753558
-2.2125,-0.002023673305315264,0.06143715548479964
-2.21125,-0.002358238905303813,0.07082032684046899
-2.21,-0.002023673305315264,0.05574023001885754
