#Digilent WaveForms Oscilloscope Acquisition
#Device Name: Discovery
#Serial Number: SN:210244566833
#Date Time: 2019-07-15 10:39:11.025
#Sample rate: 800Hz
#Samples: 8192
#Trigger: Source: Channel 1 Type: Edge Condition: Rising Level: 0 V Hyst.: Auto HoldOff: 0 s
#Channel 1: Range: 500 mV/div Offset: 0 V Attenuation: 1 X
#Channel 2: Range: 200 mV/div Offset: 0 V Attenuation: 1 X
#Power Supplies: ON
#Positive Supply: ON
#Negative Supply: ON

Time (s),Channel 1 (V),Channel 2 (V)
-5.12,0.002325679494535874,-0.0525013538340424
-5.11875,0.002325679494535874,-0.05082578752053078
-5.1175,0.0003182858946045794,0.006813693664295956
-5.11625,-0.002358238905303813,0.07115544010317146
-5.115,-0.003027370105280911,0.08925155628910519
-5.11375,-0.002358238905303661,0.07417145946748643
-5.1125,-0.002023673305315264,0.05808602285777487
-5.11125,-0.001689107705326715,0.05171887086642782
-5.11,-0.001354542105338318,0.03462809446860928
-5.10875,0.001656548294559689,-0.04378840900380224
-5.1075,0.00366394189449007,-0.09707141777347178
-5.10625,0.003329376294501521,-0.08735313315509996
-5.105,0.002660245094524727,-0.06490054455404425
-5.10375,0.002325679494535874,-0.05283646709674487
-5.1025,0.002660245094524423,-0.05149601404593497
-5.10125,0.001321982694570227,-0.01932514082649722
-5.1,-0.001354542105338927,0.05641045654427742
-5.09875,-0.003027370105280911,0.08925155628910519
-5.0975,-0.002692804505292362,0.08221417777235318
-5.09625,-0.002023673305315569,0.06411806158642767
-5.095,-0.001689107705326715,0.05439977696804763
-5.09375,-0.001689107705326715,0.04870285150210553
-5.0925,0.0006528514945931285,-0.0153037816740675
-5.09125,0.002994810694513124,-0.08500734031618644
-5.09,0.003329376294501521,-0.09338517188374454
-5.08875,0.002660245094524423,-0.07093258328267861
-5.0875,0.002325679494536026,-0.05518225993566937
-5.08625,0.002325679494535874,-0.05082578752053002
-5.085,0.001991113894547325,-0.03842659680053838
-5.08375,-0.0006854109053610678,0.03429298120589903
-5.0825,-0.002692804505292514,0.0838897440858674
-5.08125,-0.003027370105280911,0.08791110323829529
-5.08,-0.002358238905303813,0.07015010031506402
-5.07875,-0.002023673305315416,0.05775090959507803
-5.0775,-0.002023673305314503,0.05339443717992237
-5.07625,-0.0003508453053725187,0.01418618544375044
-5.075,0.002325679494535874,-0.06557077107943898
-5.07375,0.003329376294501064,-0.09707141777345746
-5.0725,0.002994810694512972,-0.07830507506213309
-5.07125,0.002660245094524423,-0.0581982792999845
-5.07,0.002325679494535874,-0.05082578752053002
-5.06875,0.002325679494534961,-0.04915022120699158
-5.0675,0.0003182858946045794,0.008154146715105863
-5.06625,-0.002358238905303813,0.07283100641668384
-5.065,-0.003027370105280607,0.09059200933990702
-5.06375,-0.002358238905303813,0.07551191251830365
-5.0625,-0.002023673305315264,0.05976158917128726
-5.06125,-0.002023673305315264,0.05305932391723772
-5.06,-0.001354542105336797,0.03596854751937591
-5.05875,0.001656548294558776,-0.04211284269026563
-5.0575,0.003329376294501521,-0.09573096472266188
-5.05625,0.003329376294501521,-0.08601268010429447
-5.055,0.002660245094524423,-0.0638952047659266
-5.05375,0.002325679494535874,-0.0525013538340424
-5.0525,0.002325679494535874,-0.05116090078323249
-5.05125,0.001321982694569009,-0.01865491430105813
-5.05,-0.001354542105338166,0.05641045654426249
-5.04875,-0.003027370105280911,0.08925155628910519
-5.0475,-0.002692804505292514,0.08120883798424941
-5.04625,-0.002023673305315264,0.06344783506101023
-5.045,-0.002023673305315264,0.05406466370534516
-5.04375,-0.001689107705326715,0.04870285150210553
-5.0425,0.0003182858946036665,-0.01463355514863375
-5.04125,0.002994810694512972,-0.08500734031618262
-5.04,0.00366394189449007,-0.09338517188374454
-5.03875,0.002994810694512972,-0.07126769654538109
-5.0375,0.002660245094524271,-0.05585248646106548
-5.03625,0.002325679494535874,-0.05216624057133992
-5.035,0.001991113894547325,-0.03976704985134829
-5.03375,-0.0006854109053598505,0.03328764141775838
-5.0325,-0.002692804505292362,0.0835546308231631
-5.03125,-0.002692804505292362,0.08690576345018786
-5.03,-0.002023673305315264,0.06847453400155165
-5.02875,-0.001689107705326715,0.0557402300188557
-5.0275,-0.001689107705326715,0.05171887086642782
-5.02625,-0.0003508453053725187,0.01217550586753558
-5.025,0.002660245094523054,-0.06758145065561758
-5.02375,0.00366394189449007,-0.09807675756157921
-5.0225,0.002994810694512972,-0.07830507506213309
-5.02125,0.002660245094524423,-0.0581982792999845
-5.02,0.002325679494535874,-0.05049067425782632
-5.01875,0.002325679494535874,-0.04780976815620773
-5.0175,0.0003182858946045794,0.009494599765915769
-5.01625,-0.002023673305314199,0.07417145946746434
-5.015,-0.003027370105280607,0.09126223586531274
-5.01375,-0.002358238905303813,0.07517679925560118
-5.0125,-0.002023673305315264,0.06009670243398973
-5.01125,-0.001689107705326867,0.05339443717994325
-5.01,-0.001354542105338166,0.03462809446860151
-5.00875,0.001656548294558776,-0.04412352226648048
-5.0075,0.00366394189449007,-0.09807675756157921
-5.00625,0.003329376294501369,-0.08668290662968464
-5.005,0.002994810694512972,-0.0638952047659266
-5.00375,0.002660245094524423,-0.05216624057133992
-5.0025,0.002660245094524423,-0.05082578752053063
-5.00125,0.001321982694570227,-0.01798468777568731
-5,-0.001354542105338166,0.05741579633236992
-4.99875,-0.003027370105280911,0.09025689607721263
-4.9975,-0.002692804505292058,0.08321951756045239
-4.99625,-0.002023673305315264,0.06512340137452688
-4.995,-0.001689107705326715,0.05574023001885754
-4.99375,-0.001689107705326715,0.04937307802751337
-4.9925,0.0006528514945931285,-0.01429844188596007
-4.99125,0.003329376294501521,-0.08467222705348015
-4.99,0.00366394189449007,-0.09237983209563712
-4.98875,0.00299481069451282,-0.06992724349456371
-4.9875,0.002660245094524423,-0.05350669362214983
-4.98625,0.002660245094524423,-0.04915022120701763
-4.985,0.001991113894547629,-0.03708614374973396
-4.98375,-0.0006854109053618285,0.0356334342567315
-4.9825,-0.002358238905303813,0.08523019713667547
-4.98125,-0.002692804505292362,0.08891644302640273
-4.98,-0.002023673305315569,0.07115544010317953
-4.97875,-0.001689107705326715,0.05808602285777487
-4.9775,-0.001689107705326715,0.05372955044264268
-4.97625,-0.0003508453053725187,0.01452129870645292
-4.975,0.002660245094524879,-0.06523565781675053
-4.97375,0.00366394189449007,-0.09606607798536436
-4.9725,0.003329376294501521,-0.07662950874862071
-4.97125,0.002660245094524727,-0.05719293951188591
-4.97,0.002660245094524423,-0.04881510794431516
-4.96875,0.002325679494535874,-0.0468044283681003
-4.9675,0.0003182858946045794,0.0104999395540232
-4.96625,-0.002023673305315569,0.07484168599290678
-4.965,-0.002692804505292362,0.09260268891612997
-4.96375,-0.002358238905303813,0.07718747883181604
-4.9625,-0.002023673305315416,0.0614371554848068
-4.96125,-0.001689107705326715,0.05507000349345258
-4.96,-0.001354542105338166,0.03797922709562628
-4.95875,0.001656548294558776,-0.03976704985134829
-4.9575,0.003663941894489918,-0.09338517188374013
-4.95625,0.003329376294501521,-0.08366688726537272
-4.955,0.002660245094524423,-0.06121429866430679
-4.95375,0.002325679494536026,-0.04982044773242777
-4.9525,0.002325679494535418,-0.04847999468159775
-4.95125,0.001321982694570227,-0.01563889493676997
-4.95,-0.001354542105338166,0.05976158917128726
-4.94875,-0.003027370105280151,0.0922675756534127
-4.9475,-0.002692804505292362,0.084895083873973
-4.94625,-0.002358238905303813,0.06646385442533678
-4.945,-0.002023673305315264,0.05674556980696497
-4.94375,-0.00168910770532565,0.05071353107829144
-4.9425,0.0006528514945931285,-0.01295798883515016
-4.94125,0.002994810694512972,-0.08299666073996777
-4.94,0.003329376294501369,-0.09036915251941889
-4.93875,0.002994810694512972,-0.06791656391835632
-4.9375,0.002325679494535874,-0.05183112730863745
-4.93625,0.002325679494535874,-0.04814488141891021
-4.935,0.001991113894546107,-0.03608080396158782
-4.93375,-0.0006854109053610678,0.03697388730751885
-4.9325,-0.002692804505292362,0.08724087671289034
-4.93125,-0.003027370105280759,0.0909271226026159
-4.93,-0.002358238905303813,0.07283100641668384
-4.92875,-0.002023673305315264,0.05942647590858478
-4.9275,-0.002023673305315264,0.05574023001885754
-4.92625,-0.0006854109053596986,0.01619686501992903
-4.925,0.002325679494535874,-0.06356009150322413
-4.92375,0.003329376294501521,-0.09539585145995941
-4.9225,0.002994810694513124,-0.07629439548592692
-4.92125,0.002325679494535874,-0.05652271298646861
-4.92,0.002325679494535874,-0.04881510794431516
-4.91875,0.002325679494535874,-0.04747465489350525
-4.9175,0.0003182858946054923,0.01049993955399684
-4.91625,-0.002358238905303813,0.07551191251830365
-4.915,-0.00336193570526946,0.09327291544153492
-4.91375,-0.002692804505292362,0.07852793188262594
-4.9125,-0.002358238905303661,0.06244249527290418
-4.91125,-0.002023673305315264,0.05607534328156001
-4.91,-0.001354542105338166,0.03864945362103123
-4.90875,0.001656548294557407,-0.03976704985131262
-4.9075,0.003329376294501521,-0.09372028514644702
-4.90625,0.002994810694512972,-0.08433711379077767
-4.905,0.002660245094524423,-0.06221963845241422
-4.90375,0.002325679494535874,-0.05082578752052956
-4.9025,0.002325679494535874,-0.04982044773242258
-4.90125,0.0009874170945816775,-0.01664423472487741
-4.9,-0.001689107705325498,0.05942647590855019
-4.89875,-0.00336193570526946,0.09193246239072501
-4.8975,-0.003027370105280911,0.08455997061127052
-4.89625,-0.002358238905303813,0.06646385442533678
-4.895,-0.002023673305315264,0.05708068306966501
-4.89375,-0.002023673305315264,0.05171887086642782
-4.8925,0.0003182858946045794,-0.01262287557244769
-4.89125,0.002994810694511755,-0.08333177400263811
-4.89,0.003329376294501217,-0.0923798320956269
-4.88875,0.002660245094524423,-0.06992724349457118
-4.8875,0.002325679494535874,-0.05417692014755478
-4.88625,0.002325679494535874,-0.05049067425782922
-4.885,0.001991113894547325,-0.0380914835378359
-4.88375,-0.0006854109053610678,0.03496320773130399
-4.8825,-0.002692804505292362,0.08590042366208044
-4.88125,-0.003361935705269004,0.08992178281450192
-4.88,-0.002358238905303813,0.07182566662857641
-4.87875,-0.002023673305315264,0.0590913626458823
-4.8775,-0.002023673305315264,0.05507000349345441
-4.87625,-0.0006854109053610678,0.01552663849456035
-4.875,0.002325679494535874,-0.06557077107943898
-4.87375,0.003329376294501521,-0.09707141777347178
-4.8725,0.002660245094524271,-0.0783050750621241
-4.87125,0.002325679494535874,-0.05853339256268698
-4.87,0.002325679494535874,-0.05082578752053002
-4.86875,0.002325679494535874,-0.04948533446972072
-4.8675,0.0003182858946045794,0.009159486503213292
-4.86625,-0.002358238905303813,0.07450657273019623
-4.865,-0.003027370105280911,0.09293780217883243
-4.86375,-0.00269280450529221,0.0775225920945109
-4.8625,-0.002358238905303813,0.06076692895939469
-4.86125,-0.002023673305315264,0.05406466370534516
-4.86,-0.001689107705326867,0.03697388730752662
-4.85875,0.00132198269457114,-0.04177772942758799
-4.8575,0.003329376294501521,-0.09640119124806683
-4.85625,0.003329376294501521,-0.08701801989239749
-4.855,0.002660245094524727,-0.06490054455404409
-4.85375,0.002325679494535874,-0.05317158035944735
-4.8525,0.002660245094524423,-0.05216624057133992
-4.85125,0.001321982694570227,-0.01899002756379474
-4.85,-0.001689107705327324,0.05741579633238516
-4.84875,-0.003027370105280911,0.09092712260261758
-4.8475,-0.003027370105280911,0.0835546308231631
-4.84625,-0.002358238905304118,0.06545851463723759
-4.845,-0.002023673305315264,0.05540511675615506
-4.84375,-0.002023673305315264,0.05004330455291543
-4.8425,0.0003182858946045794,-0.0153037816740675
-4.84125,0.003329376294501521,-0.08601268010429387
-4.84,0.003329376294501521,-0.09439051167185197
-4.83875,0.002660245094524423,-0.07227303633348851
-4.8375,0.002325679494536026,-0.05618759972377695
-4.83625,0.002325679494535874,-0.05183112730863745
-4.835,0.001991113894547325,-0.03976704985134829
-4.83375,-0.0006854109053610678,0.03429298120589903
-4.8325,-0.002692804505292514,0.0852301971366773
-4.83125,-0.003027370105280911,0.08925155628910519
-4.83,-0.002358238905303813,0.07115544010317146
-4.82875,-0.002023673305315416,0.05775090959507849
-4.8275,-0.002023673305314656,0.0537295504426244
-4.82625,-0.0006854109053610678,0.01351595891834549
-4.825,0.002325679494535874,-0.06724633739295137
-4.82375,0.003663941894489461,-0.09908209734967217
-4.8225,0.002994810694512972,-0.07998064137564548
-4.82125,0.002325679494535874,-0.05987384561349688
-4.82,0.002325679494535874,-0.05216624057133992
-4.81875,0.002325679494534961,-0.05015556099509855
-4.8175,0.0003182858946045794,0.008154146715105863
-4.81625,-0.002358238905303813,0.07383634620479128
-4.815,-0.003027370105280607,0.0922675756534191
-4.81375,-0.002692804505292362,0.07752259209451852
-4.8125,-0.002023673305315264,0.06143715548479964
-4.81125,-0.002023673305315264,0.05473489023075011
-4.81,-0.001354542105336797,0.03764411383288783
-4.80875,0.001656548294558776,-0.04144261616486067
-4.8075,0.003329376294501521,-0.09606607798536436
-4.80625,0.003329376294501521,-0.0870180198924016
-4.805,0.002660245094524423,-0.06523565781673651
-4.80375,0.002325679494535874,-0.05350669362214983
-4.8025,0.002325679494535874,-0.05216624057133992
-4.80125,0.001321982694568857,-0.01865491430105736
-4.8,-0.001689107705326715,0.05808602285777487
-4.79875,-0.003027370105280911,0.09193246239072501
-4.7975,-0.003027370105280911,0.08455997061127388
-4.79625,-0.002358238905303661,0.06646385442533237
-4.795,-0.002023673305315264,0.05674556980696497
-4.79375,-0.001689107705326715,0.05104864434102287
-4.7925,0.0003182858946036665,-0.01396332862322804
-4.79125,0.002994810694512972,-0.08500734031618262
-4.79,0.003329376294501521,-0.09372028514644702
-4.78875,0.002660245094524423,-0.07126769654538109
-4.7875,0.002325679494535874,-0.05518225993566038
-4.78625,0.002325679494535874,-0.05116090078323249
-4.785,0.001991113894547325,-0.03842659680053838
-4.78375,-0.0006854109053598505,0.03563343425667526
-4.7825,-0.002692804505292362,0.0862355369247829
-4.78125,-0.00336193570526946,0.09025689607721263
-4.78,-0.002358238905303813,0.07216077989127889
-4.77875,-0.002023673305315264,0.05875624938317799
-4.7775,-0.002023673305315264,0.05473489023075011
-4.77625,-0.0006854109053610678,0.01485641196915539
-4.775,0.002325679494534505,-0.06557077107940242
-4.77375,0.003329376294501521,-0.09774164429887673
-4.7725,0.002994810694512972,-0.07897530158753804
-4.77125,0.002325679494535874,-0.05920361908809193
-4.77,0.002325679494535874,-0.05183112730863638
-4.76875,0.002325679494535874,-0.04948533446972011
-4.7675,0.0003182858946045794,0.008824373240510816
-4.76625,-0.002358238905302596,0.07484168599286868
-4.765,-0.003361935705269156,0.09327291544152806
-4.76375,-0.002692804505292362,0.07819281861992347
-4.7625,-0.002023673305315264,0.06210738201020459
-4.76125,-0.002023673305315264,0.05540511675615811
-4.76,-0.001354542105338166,0.03797922709562628
-4.75875,0.001656548294558776,-0.04110750290215819
-4.7575,0.00366394189449007,-0.09606607798536436
-4.75625,0.00299481069451282,-0.08701801989238728
-4.755,0.002660245094524423,-0.06456543129133155
-4.75375,0.002325679494535874,-0.05317158035944735
-4.7525,0.002325679494535874,-0.05183112730863806
-4.75125,0.001321982694570227,-0.01831980103838979
-4.75,-0.001689107705326715,0.05842113612047735
-4.74875,-0.003027370105280911,0.09226757565342748
-4.7475,-0.003027370105280607,0.08489508387396477
-4.74625,-0.002358238905303813,0.06679896768803927
-4.745,-0.002023673305315264,0.05708068306966745
-4.74375,-0.001689107705326867,0.05138375760372793
-4.7425,0.0003182858946045794,-0.01329310209785264
-4.74125,0.002994810694512972,-0.08433711379077767
-4.74,0.003329376294501521,-0.09338517188374454
-4.73875,0.002660245094524271,-0.0709325832826716
-4.7375,0.002325679494535874,-0.05551737319836469
-4.73625,0.002325679494535874,-0.05116090078323249
-4.735,0.001991113894547477,-0.0387617100632465
-4.73375,-0.0006854109053619807,0.03563343425673211
-4.7325,-0.002692804505292362,0.08657065018748539
-4.73125,-0.003027370105280911,0.0905920093399151
-4.73,-0.002358238905304118,0.07216077989128727
-4.72875,-0.002023673305315264,0.0590913626458823
-4.7275,-0.002023673305315264,0.05439977696804763
-4.72625,-0.0006854109053610678,0.01519152523185787
-4.725,0.00232567949453633,-0.06557077107945376
-4.72375,0.003329376294501521,-0.09807675756157921
-4.7225,0.002994810694512972,-0.07931041485024053
-4.72125,0.002325679494536178,-0.0595387323508034
-4.72,0.002325679494535874,-0.05183112730863745
-4.71875,0.002325679494535874,-0.04948533446972011
-4.7175,0.0003182858946045794,0.008824373240510816
-4.71625,-0.002358238905304118,0.07551191251831188
-4.715,-0.003027370105280911,0.09360802870423739
-4.71375,-0.002692804505292362,0.07852793188262594
-4.7125,-0.002358238905303965,0.06244249527291439
-4.71125,-0.002023673305315264,0.05540511675615506
-4.71,-0.001354542105338166,0.03864945362103123
-4.70875,0.001321982694570227,-0.04077238963945572
-4.7075,0.003329376294501369,-0.09539585145995559
-4.70625,0.002994810694512972,-0.08701801989239749
-4.705,0.002660245094524423,-0.06456543129133155
-4.70375,0.002325679494536026,-0.05317158035945253
-4.7025,0.002325679494535265,-0.05183112730862251
-4.70125,0.0009874170945816775,-0.01899002756379474
-4.7,-0.001689107705326715,0.05808602285777487
-4.69875,-0.003027370105280302,0.09126223586530496
-4.6975,-0.003027370105280911,0.08455997061127052
-4.69625,-0.002358238905303813,0.06646385442533678
-4.695,-0.002023673305315264,0.05674556980696497
-4.69375,-0.002023673305314199,0.05104864434099345
-4.6925,0.0003182858946045794,-0.01362821536055512
-4.69125,0.002994810694512972,-0.08467222705348015
-4.69,0.003329376294501369,-0.0937202851464429
-4.68875,0.002994810694512972,-0.07160280980808356
-4.6875,0.002325679494535874,-0.05585248646106716
-4.68625,0.002325679494535874,-0.05149601404593497
-4.685,0.001991113894546107,-0.03943193658861213
-4.68375,-0.0006854109053610678,0.03462809446860151
-4.6825,-0.003027370105280911,0.08556531039937795
-4.68125,-0.003361935705269308,0.08958666955180584
-4.68,-0.002692804505292362,0.07149055336587394
-4.67875,-0.002023673305315264,0.05842113612047735
-4.6775,-0.002023673305315264,0.05406466370534516
-4.67625,-0.0003508453053713016,0.01418618544371387
-4.675,0.002325679494535874,-0.06624099760484393
-4.67375,0.003329376294501521,-0.09807675756157921
-4.6725,0.002994810694513124,-0.07964552811295138
-4.67125,0.002660245094524271,-0.05953873235079105
-4.67,0.002325679494535874,-0.05216624057133992
-4.66875,0.002325679494535874,-0.05015556099512506
-4.6675,0.0003182858946054923,0.008154146715079351
-4.66625,-0.002358238905303813,0.07417145946749375
-4.665,-0.00336193570526946,0.09260268891612997
-4.66375,-0.002692804505292362,0.07752259209451852
-4.6625,-0.002358238905303661,0.06177226874749907
-4.66125,-0.002023673305315264,0.05507000349345258
-4.66,-0.001354542105338166,0.0376441138329238
-4.65875,0.001321982694569009,-0.04077238963942006
-4.6575,0.003329376294501521,-0.09573096472266188
-4.65625,0.002994810694512972,-0.08701801989239749
-4.655,0.002660245094524423,-0.06490054455403403
-4.65375,0.002325679494535874,-0.05350669362214922
-4.6525,0.002325679494535874,-0.05216624057133992
-4.65125,0.001321982694570227,-0.01865491430109226
-4.65,-0.001689107705325346,0.05741579633233532
-4.64875,-0.003027370105280911,0.09092712260261758
-4.6475,-0.003027370105280911,0.08388974408586557
-4.64625,-0.002358238905303813,0.06579362789993183
-4.645,-0.002023673305315264,0.05607534328155742
-4.64375,-0.002023673305315264,0.05037841781561792
-4.6425,0.0003182858946045794,-0.01362821536055512
-4.64125,0.002994810694511755,-0.08467222705344785
-4.64,0.003329376294501217,-0.09372028514643711
-4.63875,0.002660245094524423,-0.07193792307078604
-4.6375,0.002325679494535874,-0.05618759972376964
-4.63625,0.002325679494535874,-0.05216624057134175
-4.635,0.001991113894547325,-0.03943193658864581
-4.63375,-0.0006854109053610678,0.03395786794319656
-4.6325,-0.002692804505292362,0.084895083873973
-4.63125,-0.003027370105280607,0.08925155628909681
-4.63,-0.002358238905303813,0.07082032684046899
-4.62875,-0.002023673305315264,0.05808602285777487
-4.6275,-0.002023673305315264,0.05372955044264466
-4.62625,-0.0006854109053610678,0.01485641196915539
-4.625,0.002325679494535874,-0.06624099760484393
-4.62375,0.003329376294501521,-0.0984118708242817
-4.6225,0.00299481069451282,-0.07931041485023138
-4.62125,0.002660245094524423,-0.05920361908809193
-4.62,0.002325679494535874,-0.05183112730863745
-4.61875,0.002325679494535874,-0.04948533446972118
-4.6175,0.0003182858946045794,0.007483920189700909
-4.61625,-0.002358238905303813,0.0735012329420888
-4.615,-0.003027370105280911,0.09159734912802253
-4.61375,-0.002692804505292058,0.07651725230640392
-4.6125,-0.002023673305315264,0.06076692895939469
-4.61125,-0.002023673305315264,0.05372955044264268
-4.61,-0.00135454210533847,0.03697388730752647
-4.60875,0.00132198269457114,-0.04144261616488551
-4.6075,0.003329376294501521,-0.09606607798536436
-4.60625,0.002994810694512972,-0.08768824641780244
-4.605,0.002660245094524575,-0.06557077107944904
-4.60375,0.002660245094524423,-0.05417692014755478
-4.6025,0.002325679494535874,-0.05283646709674487
-4.60125,0.001321982694570227,-0.01966025408919969
-4.6,-0.001689107705327324,0.05641045654427772
-4.59875,-0.003027370105280911,0.08992178281451015
-4.5975,-0.002692804505292362,0.08321951756046062
-4.59625,-0.002023673305315569,0.06445317484913046
-4.595,-0.002023673305315264,0.05507000349345258
-4.59375,-0.001689107705326715,0.04970819129021296
-4.5925,0.0006528514945931285,-0.01362821536055512
-4.59125,0.002994810694513124,-0.08433711379078193
-4.59,0.003329376294501521,-0.09372028514644702
-4.58875,0.002994810694512972,-0.07160280980808356
-4.5875,0.002660245094524575,-0.05585248646107432
-4.58625,0.002325679494535874,-0.05216624057133992
-4.585,0.001991113894547325,-0.04010216311405077
-4.58375,-0.0006854109053610678,0.03362275468049408
-4.5825,-0.002692804505292514,0.08422485734856988
-4.58125,-0.003027370105280911,0.08824621650099776
-4.58,-0.002358238905303813,0.07048521357776651
-4.57875,-0.002023673305315416,0.05708068306967354
-4.5775,-0.001689107705326106,0.05372955044262485
-4.57625,-0.0003508453053725187,0.01452129870645292
-4.575,0.002325679494535874,-0.06557077107943898
-4.57375,0.003663941894489461,-0.0977416442988621
-4.5725,0.002994810694512972,-0.079645528112943
-4.57125,0.002660245094524423,-0.05987384561349688
-4.57,0.002325679494535874,-0.05216624057133992
-4.56875,0.002325679494534961,-0.05049067425780118
-4.5675,0.0003182858946045794,0.007483920189700909
-4.56625,-0.002023673305315264,0.07316611967938631
-4.565,-0.003027370105280455,0.09126223586531182
-4.56375,-0.002358238905303813,0.07651725230641108
-4.5625,-0.002023673305315264,0.06043181569669221
-4.56125,-0.001689107705326715,0.05372955044264268
-4.56,-0.001354542105336797,0.03663877404478025
-4.55875,0.001656548294558776,-0.04278306921567058
-4.5575,0.00366394189449007,-0.09673630451076931
-4.55625,0.003329376294501673,-0.08768824641780656
-4.555,0.002994810694512972,-0.06557077107943898
-4.55375,0.002660245094524423,-0.05417692014755478
-4.5525,0.002660245094524423,-0.05283646709674487
-4.55125,0.001321982694569009,-0.01999536735186742
-4.55,-0.001354542105338166,0.05641045654426249
-4.54875,-0.003027370105280911,0.09025689607721263
-4.5475,-0.002692804505292514,0.08321951756046382
-4.54625,-0.002023673305315264,0.06545851463722495
-4.545,-0.002023673305315264,0.05574023001885754
-4.54375,-0.002023673305315264,0.05004330455291543
-4.5425,0.0003182858946035143,-0.01329310209782385
-4.54125,0.002994810694512972,-0.0840020005280752
-4.54,0.003329376294501521,-0.09305005862104207
-4.53875,0.002994810694512972,-0.07126769654538109
-4.5375,0.002325679494535874,-0.0555173731983627
-4.53625,0.002325679494535874,-0.05116090078323249
-4.535,0.001991113894547325,-0.03909682332594334
-4.53375,-0.0006854109053598505,0.03395786794316333
-4.5325,-0.002692804505292362,0.084895083873973
-4.53125,-0.003027370105280911,0.08891644302640273
-4.53,-0.002358238905303813,0.07082032684046899
-4.52875,-0.002023673305315264,0.05775090959507041
-4.5275,-0.002023673305315264,0.0533944371799402
-4.52625,-0.0003508453053725187,0.01452129870645292
-4.525,0.002325679494534656,-0.06557077107940257
-4.52375,0.00366394189449007,-0.09774164429887673
-4.5225,0.002994810694512972,-0.07931041485024053
-4.52125,0.002660245094524423,-0.05920361908809193
-4.52,0.002325679494535874,-0.05183112730863653
-4.51875,0.002325679494535874,-0.04982044773242258
-4.5175,0.0003182858946045794,0.008154146715105863
-4.51625,-0.002358238905302596,0.07350123294205908
-4.515,-0.003027370105280759,0.09193246239071831
-4.51375,-0.002692804505292362,0.07718747883181604
-4.5125,-0.002023673305315264,0.06110204222209716
-4.51125,-0.002023673305315264,0.054734890230753
-4.51,-0.001354542105338166,0.03831434035832876
-4.50875,0.001321982694570227,-0.04010216311405077
-4.5075,0.00366394189449007,-0.09439051167185197
-4.50625,0.00299481069451282,-0.08634779336698248
-4.505,0.002660245094524423,-0.06423031802862908
-4.50375,0.002325679494535874,-0.05283646709674487
-4.5025,0.002325679494535874,-0.0518311273086379
-4.50125,0.001321982694570227,-0.01865491430109226
-4.5,-0.001354542105338166,0.05741579633236992
-4.49875,-0.003027370105280911,0.09126223586532005
-4.4975,-0.003027370105280607,0.08388974408585764
-4.49625,-0.002358238905303813,0.06646385442533678
-4.495,-0.001689107705326715,0.05674556980696497
-4.49375,-0.002023673305315112,0.05104864434102546
-4.4925,0.0006528514945931285,-0.01228776230974521
-4.49125,0.002994810694512972,-0.08333177400267025
-4.49,0.003329376294501521,-0.09237983209563712
-4.48875,0.002994810694512668,-0.0702623567572665
-4.4875,0.002325679494535874,-0.05451203341025726
-4.48625,0.002325679494535874,-0.05015556099512506
-4.485,0.001991113894547477,-0.03809148353784139
-4.48375,-0.0006854109053619807,0.03496320773132715
-4.4825,-0.002692804505292362,0.08590042366208044
-4.48125,-0.003027370105280911,0.08992178281451015
-4.48,-0.002358238905304118,0.07182566662858464
-4.47875,-0.002023673305315264,0.0590913626458823
-4.4775,-0.002023673305315264,0.05507000349345258
-4.47625,-0.0006854109053610678,0.01653197828266778
-4.475,0.00232567949453633,-0.06322497824053627
-4.47375,0.003329376294501521,-0.09539585145995941
-4.4725,0.002994810694512972,-0.07729973527402567
-4.47125,0.002325679494536178,-0.05752805277458854
-4.47,0.002325679494535874,-0.04982044773242258
-4.46875,0.002325679494535874,-0.04814488141891021
-4.4675,0.0003182858946045794,0.009159486503213292
-4.46625,-0.002358238905304269,0.07484168599290693
-4.465,-0.00336193570526946,0.09293780217883243
-4.46375,-0.002692804505292362,0.07819281861992347
-4.4625,-0.002023673305315569,0.0621073820102119
-4.46125,-0.002023673305315264,0.05540511675615506
-4.46,-0.001354542105338166,0.03898456688373371
-4.45875,0.001321982694570227,-0.03876171006324086
-4.4575,0.003329376294501521,-0.09372028514644336
-4.45625,0.003329376294501521,-0.08567756684158757
-4.455,0.002660245094524423,-0.0638952047659266
-4.45375,0.002325679494536026,-0.05216624057134526
-4.4525,0.002325679494535418,-0.05116090078321772
-4.45125,0.001321982694570227,-0.01865491430109226
-4.45,-0.001689107705326715,0.05674556980696497
-4.44875,-0.003027370105280302,0.09025689607719739
-4.4475,-0.002692804505292362,0.08254929103505566
-4.44625,-0.002023673305315264,0.06478828811182441
-4.445,-0.002023673305315264,0.05507000349345258
-4.44375,-0.001689107705325802,0.04970819129018431
-4.4425,0.0003182858946045794,-0.01329310209785264
-4.44125,0.002994810694512972,-0.08366688726537272
-4.44,0.003329376294501369,-0.09338517188374013
-4.43875,0.002994810694512972,-0.07160280980808356
-4.4375,0.002325679494535874,-0.05585248646106716
-4.43625,0.002325679494535874,-0.05183112730863745
-4.435,0.001991113894546107,-0.04010216311401785
-4.43375,-0.0006854109053610678,0.03228230162968418
-4.4325,-0.002692804505292362,0.08321951756046062
-4.43125,-0.003027370105280759,0.08724087671288851
-4.43,-0.002358238905303813,0.0691447605269566
-4.42875,-0.002023673305315264,0.05641045654426249
-4.4275,-0.002023673305315264,0.05272421065453525
-4.42625,-0.0006854109053596986,0.01452129870641665
-4.425,0.002325679494535874,-0.06523565781673651
-4.42375,0.00366394189449007,-0.0984118708242817
-4.4225,0.002994810694513276,-0.07998064137565386
-4.42125,0.002660245094524271,-0.05987384561349353
-4.42,0.002325679494535874,-0.0525013538340424
-4.41875,0.002325679494535874,-0.05049067425782754
-4.4175,0.0003182858946054923,0.006143467138865245
-4.41625,-0.002358238905303813,0.07082032684046899
-4.415,-0.003027370105280911,0.08925155628910519
-4.41375,-0.002692804505292362,0.0735012329420888
-4.4125,-0.002023673305315112,0.05808602285777213
-4.41125,-0.001689107705326715,0.05205398412913029
-4.41,-0.001354542105338166,0.03596854751941142
-4.40875,0.001656548294557407,-0.04144261616482546
-4.4075,0.00366394189449007,-0.09606607798536436
-4.40625,0.003329376294501521,-0.08735313315509996
-4.405,0.002994810694512972,-0.06523565781673651
-4.40375,0.002325679494536026,-0.05384180688485185
-4.4025,0.002660245094524423,-0.05283646709674487
-4.40125,0.001321982694570227,-0.02033048061460465
-4.4,-0.001354542105336949,0.05473489023071597
-4.39875,-0.002692804505292362,0.08757598997559281
-4.3975,-0.002692804505292362,0.08154395124694823
-4.39625,-0.002023673305315264,0.06411806158641944
-4.395,-0.001689107705326715,0.05473489023074798
-4.39375,-0.001689107705326715,0.05004330455291543
-4.3925,0.0006528514945931285,-0.01295798883515016
-4.39125,0.003329376294500304,-0.08299666073993592
-4.39,0.003329376294501369,-0.09271494535832953
-4.38875,0.002994810694512972,-0.07059747001997613
-4.3875,0.002325679494535874,-0.05518225993566221
-4.38625,0.002325679494535874,-0.050825787520532
-4.385,0.001991113894547325,-0.03943193658864581
-4.38375,-0.0006854109053610678,0.03328764141779161
-4.3825,-0.002692804505292362,0.08422485734856805
-4.38125,-0.003027370105280455,0.08824621650098968
-4.38,-0.002023673305315264,0.07048521357776651
-4.37875,-0.001689107705326715,0.05741579633236992
-4.3775,-0.001689107705326715,0.05372955044264436
-4.37625,-0.0003508453053725187,0.01485641196915539
-4.375,0.002325679494535874,-0.06490054455403403
-4.37375,0.00366394189449007,-0.09740653103617426
-4.3725,0.00299481069451282,-0.07864018832482658
-4.37125,0.002660245094524423,-0.05886850582538945
-4.37,0.002325679494535874,-0.05082578752053002
-4.36875,0.002325679494535874,-0.04881510794431607
-4.3675,0.0006528514945931285,0.008489259977808339
-4.36625,-0.002023673305315264,0.07383634620479128
-4.365,-0.003027370105280911,0.09193246239072501
-4.36375,-0.002358238905303661,0.07752259209451121
-4.3625,-0.002023673305315264,0.06143715548479964
-4.36125,-0.001689107705326715,0.05473489023075011
-4.36,-0.001354542105338318,0.03864945362103855
-4.35875,0.001656548294559689,-0.03976704985137283
-4.3575,0.00366394189449007,-0.09372028514644702
-4.35625,0.003329376294501521,-0.08534245357888511
-4.355,0.002660245094524727,-0.06356009150323404
-4.35375,0.002660245094524423,-0.05183112730863745
-4.3525,0.002660245094524423,-0.05049067425782754
-4.35125,0.001321982694570227,-0.01831980103838979
-4.35,-0.001354542105338927,0.05775090959508748
-4.34875,-0.003027370105280911,0.09092712260261758
-4.3475,-0.002692804505292362,0.08422485734856805
-4.34625,-0.002023673305315569,0.06646385442534486
-4.345,-0.001689107705326715,0.05641045654426249
-4.34375,-0.001689107705326715,0.05104864434102287
-4.3425,0.0006528514945931285,-0.01195264904704273
-4.34125,0.002994810694513276,-0.08266154747726939
-4.34,0.00366394189449007,-0.09170960557023215
-4.33875,0.002994810694512972,-0.06992724349457118
-4.3375,0.002660245094524575,-0.05384180688485962
-4.33625,0.002325679494535874,-0.04982044773242258
-4.335,0.001991113894547325,-0.0380914835378359
-4.33375,-0.0006854109053610678,0.03462809446860151
-4.3325,-0.002692804505292514,0.0852301971366773
-4.33125,-0.003027370105280911,0.08925155628910519
-4.33,-0.002358238905303813,0.07115544010317146
-4.32875,-0.002023673305315416,0.05808602285778082
-4.3275,-0.002023673305314503,0.05406466370532778
-4.32625,-0.0003508453053725187,0.01586175175726282
-4.325,0.002325679494535874,-0.0638952047659266
-4.32375,0.003663941894489461,-0.09640119124805205
-4.3225,0.002994810694512972,-0.07796996179943062
-4.32125,0.002325679494535874,-0.05853339256268698
-4.32,0.002325679494535874,-0.05082578752053002
-4.31875,0.002325679494534961,-0.04915022120699172
-4.3175,0.0003182858946045794,0.007819033452403385
-4.31625,-0.002023673305315264,0.07316611967938631
-4.315,-0.003027370105280455,0.09126223586531182
-4.31375,-0.002358238905303813,0.07651725230641108
-4.3125,-0.001689107705326715,0.06076692895939469
-4.31125,-0.001689107705326715,0.05439977696804763
-4.31,-0.001354542105336949,0.0383143403582934
-4.30875,0.001321982694570227,-0.03943193658864581
-4.3075,0.003329376294501521,-0.09439051167185197
-4.30625,0.003329376294501521,-0.08634779336699619
-4.305,0.002660245094524423,-0.06423031802862908
-4.30375,0.002325679494535874,-0.05283646709674487
-4.3025,0.002325679494535874,-0.05183112730863745
-4.30125,0.001321982694569009,-0.01932514082646277
-4.3,-0.001354542105338166,0.05641045654426249
-4.29875,-0.002692804505292362,0.08992178281451015
-4.2975,-0.003027370105280759,0.08288440429776135
-4.29625,-0.002023673305315264,0.06512340137452247
-4.295,-0.002023673305315264,0.05540511675615506
-4.29375,-0.001689107705326715,0.05037841781561792
-4.2925,0.0006528514945920634,-0.01295798883512136
-4.29125,0.002994810694512972,-0.08433711379077767
-4.29,0.00366394189449007,-0.09372028514644702
-4.28875,0.002994810694512972,-0.07193792307078604
-4.2875,0.002325679494535874,-0.05652271298647028
-4.28625,0.002325679494535874,-0.0525013538340424
-4.285,0.002325679494535874,-0.04077238963945572
-4.28375,-0.0006854109053596987,0.03161207510424631
-4.2825,-0.002692804505292362,0.08120883798424576
-4.28125,-0.003027370105280911,0.08590042366208044
-4.28,-0.002023673305315264,0.06880964726425412
-4.27875,-0.002023673305315112,0.05607534328155818
-4.2775,-0.001689107705326715,0.05205398412913029
-4.27625,-0.0003508453053725187,0.01385107218104796
-4.275,0.002325679494534656,-0.0659058843421052
-4.27375,0.00366394189449007,-0.09874698408698417
-4.2725,0.003329376294501521,-0.08132109442645538
-4.27125,0.002660245094524423,-0.06154941192700927
-4.27,0.002660245094524423,-0.05384180688485109
-4.26875,0.002660245094524423,-0.05116090078323249
-4.2675,0.0003182858946045794,0.006143467138891003
-4.26625,-0.002023673305314199,0.07149055336584423
-4.265,-0.00269280450529221,0.09025689607720593
-4.26375,-0.002358238905303813,0.07551191251830365
-4.2625,-0.001689107705326715,0.05942647590858478
-4.26125,-0.001689107705326715,0.05272421065453829
-4.26,-0.001019976505349617,0.03596854751941142
-4.25875,0.001656548294558776,-0.04211284269026563
-4.2575,0.00366394189449007,-0.09673630451076931
-4.25625,0.003663941894489766,-0.08835847294319749
-4.255,0.002994810694512972,-0.06657611086754642
-4.25375,0.002660245094524423,-0.05518225993566221
-4.2525,0.002660245094524423,-0.05350669362215059
-4.25125,0.001656548294558776,-0.0210007071400096
-4.25,-0.001019976505349617,0.05439977696804763
-4.24875,-0.002692804505292362,0.08757598997559281
-4.2475,-0.002692804505292058,0.08120883798423799
-4.24625,-0.002023673305315264,0.06411806158641944
-4.245,-0.001689107705326715,0.05473489023075011
-4.24375,-0.001689107705326715,0.04970819129021524
-4.2425,0.0006528514945931285,-0.01329310209785264
-4.24125,0.003329376294501521,-0.08366688726537272
-4.24,0.00366394189449007,-0.09305005862104207
-4.23875,0.00299481069451282,-0.07093258328267145
-4.2375,0.002660245094524423,-0.05518225993566221
-4.23625,0.002660245094524423,-0.05116090078323249
-4.235,0.002325679494536026,-0.03976704985135347
-4.23375,-0.0003508453053735838,0.03295252815511245
-4.2325,-0.002692804505292362,0.08422485734856805
-4.23125,-0.002692804505292362,0.08858132976370024
-4.23,-0.002023673305315569,0.07115544010317938
-4.22875,-0.001689107705326715,0.05808602285777487
-4.2275,-0.001689107705326715,0.05406466370534516
-4.22625,-0.0003508453053725187,0.01586175175726282
-4.225,0.002660245094524879,-0.06456543129134602
-4.22375,0.00366394189449007,-0.09640119124806683
-4.2225,0.003329376294501521,-0.07729973527402567
-4.22125,0.002660245094524727,-0.05786316603729087
-4.22,0.002660245094524423,-0.04982044773242258
-4.21875,0.002660245094524423,-0.04847999468161268
-4.2175,0.0003182858946045794,0.007819033452403385
-4.21625,-0.00202367330531572,0.073166119679395
-4.215,-0.003027370105280911,0.09226757565342748
-4.21375,-0.002358238905303813,0.07718747883181604
-4.2125,-0.001689107705327019,0.0614371554848068
-4.21125,-0.001689107705326715,0.05507000349345258
-4.21,-0.001354542105338166,0.03831434035832876
-4.20875,0.001656548294558776,-0.03909682332594334
-4.2075,0.00366394189449007,-0.09338517188374043
-4.20625,0.00366394189449007,-0.08433711379077767
-4.205,0.002994810694512972,-0.06188452518971174
-4.20375,0.002325679494536178,-0.0501555609951304
-4.2025,0.002325679494535418,-0.04915022120700301
-4.20125,0.001321982694570227,-0.01697934798757988
-4.2,-0.001354542105338166,0.05842113612047735
-4.19875,-0.002692804505291754,0.0909271226026028
-4.1975,-0.002692804505292362,0.08455997061127052
-4.19625,-0.002023673305315264,0.06679896768803927
-4.195,-0.001689107705326715,0.05708068306966745
-4.19375,-0.00168910770532565,0.05171887086639917
-4.1925,0.0006528514945931285,-0.01128242252163778
-4.19125,0.003329376294501521,-0.08199132095186033
-4.19,0.003329376294501521,-0.09137449230752542
-4.18875,0.002994810694512972,-0.06959213023186871
-4.1875,0.002660245094524423,-0.05350669362214983
-4.18625,0.002660245094524423,-0.04881510794431516
-4.185,0.001991113894546107,-0.03708614374969571
-4.18375,-0.0006854109053610678,0.03496320773130399
-4.1825,-0.002692804505292362,0.08556531039937795
-4.18125,-0.003027370105280759,0.08925155628910351
-4.18,-0.002358238905303813,0.07182566662857641
-4.17875,-0.001689107705326715,0.05875624938317982
-4.1775,-0.001689107705326715,0.05473489023075011
-4.17625,-0.0003508453053713016,0.0151915252318216
-4.175,0.002325679494535874,-0.06456543129133155
-4.17375,0.00366394189449007,-0.09707141777347178
-4.1725,0.003329376294501673,-0.07830507506214163
-4.17125,0.002660245094524271,-0.05853339256268347
-4.17,0.002325679494535874,-0.05082578752053002
-4.16875,0.002660245094524423,-0.04881510794431516
-4.1675,0.0003182858946056445,0.007483920189675301
-4.16625,-0.002023673305315264,0.07249589315398136
-4.165,-0.003027370105280911,0.09126223586532005
-4.16375,-0.002358238905303813,0.07651725230641108
-4.1625,-0.002023673305315112,0.06043181569668932
-4.16125,-0.001689107705326715,0.05406466370534516
-4.16,-0.001354542105338166,0.0376441138329238
-4.15875,0.001656548294557407,-0.0401021631140154
-4.1575,0.00366394189449007,-0.09439051167185197
-4.15625,0.003329376294501521,-0.08601268010429006
-4.155,0.002660245094524423,-0.06456543129133155
-4.15375,0.002660245094524423,-0.05250135383404194
-4.1525,0.002660245094524423,-0.05149601404593497
-4.15125,0.001321982694570227,-0.01899002756379474
-4.15,-0.001354542105336949,0.05674556980693053
-4.14875,-0.002692804505292362,0.08958666955180768
-4.1475,-0.002692804505292362,0.08288440429775815
-4.14625,-0.002023673305315264,0.06478828811182441
-4.145,-0.002023673305315112,0.05473489023074767
-4.14375,-0.001689107705326715,0.04937307802751048
-4.1425,0.0006528514945931285,-0.01329310209785264
-4.14125,0.003329376294500304,-0.08400200052804305
-4.14,0.003663941894489918,-0.09305005862103201
-4.13875,0.003329376294501521,-0.07093258328267861
-4.1375,0.002660245094524423,-0.05518225993566221
-4.13625,0.002660245094524423,-0.05149601404593665
-4.135,0.002325679494535874,-0.03943193658864581
-4.13375,-0.0006854109053610678,0.03295252815508913
-4.1325,-0.002358238905303813,0.0835546308231631
-4.13125,-0.00269280450529221,0.08791110323828721
-4.13,-0.002358238905303813,0.07015010031506402
-4.12875,-0.001689107705326715,0.05741579633236992
-4.1275,-0.001689107705326715,0.05339443717994204
-4.12625,-0.0003508453053725187,0.01485641196915539
-4.125,0.002660245094524423,-0.06456543129133155
-4.12375,0.00366394189449007,-0.09707141777347178
-4.1225,0.00299481069451282,-0.07897530158752905
-4.12125,0.002660245094524423,-0.05920361908809193
-4.12,0.002325679494535874,-0.05149601404593497
-4.11875,0.002660245094524271,-0.04948533446972102
-4.1175,0.0003182858946045794,0.007148806926998433
-4.11625,-0.002023673305315264,0.07249589315398136
-4.115,-0.003027370105280911,0.09092712260261758
-4.11375,-0.002358238905303509,0.07618213904370159
-4.1125,-0.001689107705326715,0.06076692895939469
-4.11125,-0.001689107705326715,0.05406466370534516
-4.11,-0.001354542105338318,0.03764411383293127
-4.10875,0.001656548294559689,-0.04077238963948025
-4.1075,0.00366394189449007,-0.09472562493455444
-4.10625,0.003329376294501521,-0.08601268010429006
-4.105,0.002994810694513124,-0.06389520476593666
-4.10375,0.002660245094524423,-0.05216624057133992
-4.1025,0.002660245094524423,-0.05116090078323249
-4.10125,0.001321982694570227,-0.01932514082649722
-4.1,-0.001354542105338927,0.05641045654427772
-4.09875,-0.003027370105280911,0.08992178281451015
-4.0975,-0.002692804505292362,0.08321951756046062
-4.09625,-0.002023673305315569,0.06512340137453511
-4.095,-0.001689107705326715,0.05540511675615506
-4.09375,-0.001689107705326715,0.05004330455291543
-4.0925,0.0006528514945931285,-0.01262287557244769
-4.09125,0.002994810694513276,-0.08299666073997188
-4.09,0.00366394189449007,-0.09204471883293464
-4.08875,0.002994810694512972,-0.06992724349457118
-4.0875,0.002660245094524575,-0.05417692014756195
-4.08625,0.002660245094524423,-0.04982044773242258
-4.085,0.002325679494535874,-0.03842659680053838
-4.08375,-0.0003508453053725187,0.03362275468049408
-4.0825,-0.002692804505292514,0.08422485734857019
-4.08125,-0.003027370105280911,0.08891644302640273
-4.08,-0.002358238905303813,0.07149055336587394
-4.07875,-0.001689107705327019,0.05875624938318562
-4.0775,-0.001689107705326106,0.05473489023073273
-4.07625,-0.0003508453053725187,0.01653197828266778
-4.075,0.002325679494535874,-0.06255475171511669
-4.07375,0.003663941894489461,-0.09539585145994448
-4.0725,0.003329376294501521,-0.07729973527402567
-4.07125,0.002660245094524423,-0.05719293951187707
-4.07,0.002325679494535874,-0.04948533446972011
-4.06875,0.002325679494534961,-0.04780976815618213
-4.0675,0.0003182858946045794,0.008489259977808339
-4.06625,-0.002023673305315264,0.07383634620479128
-4.065,-0.003027370105280455,0.09193246239071678
-4.06375,-0.002358238905303813,0.07718747883181604
-4.0625,-0.002023673305315264,0.06110204222209716
-4.06125,-0.001689107705326715,0.05473489023075011
-4.06,-0.001354542105336797,0.03831434035829371
-4.05875,0.001656548294558776,-0.03876171006324086
-4.0575,0.00366394189449007,-0.09271494535833959
-4.05625,0.003329376294501673,-0.08400200052807916
-4.055,0.002660245094524423,-0.06255475171511669
-4.05375,0.002325679494535874,-0.05116090078323249
-4.0525,0.002660245094524423,-0.04982044773242258
-4.05125,0.001321982694569009,-0.01798468777565302
-4.05,-0.001354542105338166,0.05741579633236992
-4.04875,-0.003027370105280911,0.09159734912802253
-4.0475,-0.003027370105280911,0.08455997061127372
-4.04625,-0.002023673305315264,0.066798967688035
-4.045,-0.002023673305315264,0.05741579633236992
-4.04375,-0.001689107705326715,0.05138375760372534
-4.0425,0.0003182858946036665,-0.01161753578431161
-4.04125,0.002994810694512972,-0.08165620768915786
-4.04,0.003329376294501521,-0.0910393790448272
-4.03875,0.002994810694512972,-0.06892190370646376
-4.0375,0.002325679494535874,-0.05350669362214815
-4.03625,0.002325679494535874,-0.04982044773242258
-4.035,0.001991113894547325,-0.03775637027513343
-4.03375,-0.0006854109053598505,0.03429298120586627
-4.0325,-0.002692804505292362,0.084895083873973
-4.03125,-0.003027370105280911,0.08925155628910519
-4.03,-0.002358238905303813,0.07149055336587394
-4.02875,-0.002023673305315264,0.05909136264588032
-4.0275,-0.002023673305315264,0.05473489023075011
-4.02625,-0.0006854109053610678,0.01552663849456035
-4.025,0.002325679494534505,-0.06389520476589049
-4.02375,0.003329376294501521,-0.09573096472266188
-4.0225,0.002994810694512972,-0.07729973527402567
-4.02125,0.002325679494535874,-0.05752805277457955
-4.02,0.002325679494535874,-0.04982044773242182
-4.01875,0.002325679494535874,-0.04814488141891021
-4.0175,0.0003182858946045794,0.008489259977808339
-4.01625,-0.002358238905302596,0.07350123294205924
-4.015,-0.003361935705269156,0.09193246239071831
-4.01375,-0.002692804505292362,0.07718747883181604
-4.0125,-0.002023673305315264,0.06143715548479964
-4.01125,-0.002023673305315264,0.05507000349345548
-4.01,-0.001354542105338166,0.03831434035832876
-4.00875,0.001321982694570227,-0.03909682332594334
-4.0075,0.003329376294501521,-0.09372028514644702
-4.00625,0.00299481069451282,-0.08534245357887504
-4.005,0.002660245094524423,-0.06322497824052165
-4.00375,0.002325679494535874,-0.05183112730863745
-4.0025,0.002325679494535874,-0.05082578752053048
-4.00125,0.001321982694570227,-0.01899002756379474
-4,-0.001689107705326715,0.05607534328156001
-3.99875,-0.003027370105280911,0.08925155628910519
-3.9975,-0.002692804505292362,0.08288440429775815
-3.99625,-0.002358238905303813,0.06512340137452688
-3.995,-0.002023673305315264,0.05540511675615506
-3.99375,-0.002023673305315264,0.04937307802751048
-3.9925,0.0003182858946045794,-0.01362821536055512
-3.99125,0.002994810694512972,-0.08366688726537272
-3.99,0.00366394189449007,-0.09305005862104207
-3.98875,0.002994810694512972,-0.07126769654538109
-3.9875,0.002325679494535874,-0.05551737319836469
-3.98625,0.002325679494535874,-0.05116090078323249
-3.985,0.001991113894547325,-0.03943193658864581
-3.98375,-0.0006854109053610678,0.03228230162968418
-3.9825,-0.002692804505292362,0.08254929103505566
-3.98125,-0.003027370105280911,0.08690576345018786
-3.98,-0.002358238905303813,0.07015010031506402
-3.97875,-0.002023673305315264,0.05674556980696497
-3.9775,-0.001689107705326715,0.05372955044264268
-3.97625,-0.0003508453053725187,0.01586175175726282
-3.975,0.002660245094524423,-0.06356009150322413
-3.97375,0.00366394189449007,-0.09640119124806683
-3.9725,0.002994810694512972,-0.07830507506213309
-3.97125,0.002660245094524423,-0.05886850582538945
-3.97,0.002325679494535874,-0.05116090078323249
-3.96875,0.002325679494535874,-0.04982044773242258
-3.9675,0.0003182858946045794,0.006143467138891003
-3.96625,-0.002023673305315264,0.07115544010317146
-3.965,-0.003027370105280911,0.0905920093399151
-3.96375,-0.002358238905303813,0.07551191251830365
-3.9625,-0.002023673305315264,0.06009670243398973
-3.96125,-0.002023673305315264,0.05406466370534516
-3.96,-0.001354542105338166,0.03797922709562628
-3.95875,0.001321982694570227,-0.03976704985134829
-3.9575,0.003329376294501521,-0.09372028514644702
-3.95625,0.002994810694512972,-0.08500734031618262
-3.955,0.002660245094524423,-0.06356009150322413
-3.95375,0.002325679494535874,-0.05183112730863745
-3.9525,0.002325679494535874,-0.05082578752053002
-3.95125,0.001321982694570227,-0.01932514082649722
-3.95,-0.001354542105338166,0.05607534328156001
-3.94875,-0.002692804505292362,0.08891644302640273
-3.9475,-0.002692804505292362,0.08254929103505566
-3.94625,-0.002023673305315264,0.06378294832371698
-3.945,-0.001689107705326715,0.05406466370534516
-3.94375,-0.001689107705326715,0.04937307802751048
-3.9425,0.0006528514945931285,-0.01295798883515016
-3.94125,0.002994810694512972,-0.08266154747726528
-3.94,0.003329376294501521,-0.09170960557023215
-3.93875,0.002994810694512972,-0.06992724349457118
-3.9375,0.002660245094524423,-0.05384180688485231
-3.93625,0.002660245094524423,-0.04948533446972011
-3.935,0.002325679494535874,-0.0380914835378359
-3.93375,-0.0006854109053610678,0.03362275468049408
-3.9325,-0.002692804505292362,0.08388974408586557
-3.93125,-0.003027370105280911,0.08824621650099776
-3.93,-0.002358238905303813,0.07015010031506402
-3.92875,-0.002023673305315264,0.05674556980696497
-3.9275,-0.002023673305315264,0.05205398412913029
-3.92625,-0.0003508453053725187,0.01485641196915539
-3.925,0.002660245094524423,-0.06356009150322413
-3.92375,0.00366394189449007,-0.09673630451076931
-3.9225,0.003329376294501521,-0.07796996179943062
-3.92125,0.002660245094524423,-0.0581982792999845
-3.92,0.002660245094524423,-0.05015556099512506
-3.91875,0.002325679494535874,-0.04847999468161268
-3.9175,0.0003182858946045794,0.007483920189700909
-3.91625,-0.002023673305315264,0.07216077989127889
-3.915,-0.003027370105280911,0.0905920093399151
-3.91375,-0.002358238905303813,0.07551191251830365
-3.9125,-0.002023673305315264,0.0590913626458823
-3.91125,-0.001689107705326715,0.05238909739183277
-3.91,-0.001019976505349617,0.03496320773130399
-3.90875,0.001656548294558776,-0.04278306921567058
-3.9075,0.00366394189449007,-0.09606607798536436
-3.90625,0.003329376294501521,-0.08601268010429006
-3.905,0.002994810694512972,-0.0638952047659266
-3.90375,0.002325679494535874,-0.05183112730863745
-3.9025,0.002660245094524423,-0.05082578752053002
-3.90125,0.001321982694570227,-0.01865491430109226
-3.9,-0.001354542105338166,0.05607534328156001
-3.89875,-0.003027370105280911,0.08891644302640273
-3.8975,-0.002692804505292362,0.08254929103505566
-3.89625,-0.002023673305315264,0.06445317484912193
-3.895,-0.001689107705326715,0.05439977696804763
-3.89375,-0.001354542105338166,0.04836773823940305
-3.8925,0.0009874170945816775,-0.01563889493676997
-3.89125,0.003329376294501521,-0.08567756684158757
-3.89,0.003329376294501521,-0.09237983209563712
-3.88875,0.002994810694512972,-0.06959213023186871
-3.8875,0.002660245094524423,-0.05350669362214983
-3.88625,0.002660245094524423,-0.04948533446972011
-3.885,0.001991113894547325,-0.03775637027513343
-3.88375,-0.0006854109053610678,0.03395786794319656
-3.8825,-0.002358238905303813,0.0835546308231631
-3.88125,-0.003027370105280911,0.08824621650099776
-3.88,-0.002023673305315264,0.07082032684046899
-3.87875,-0.001689107705326715,0.0577509095950724
-3.8775,-0.001689107705326715,0.0533944371799402
-3.87625,-0.0003508453053725187,0.01552663849456035
-3.875,0.002325679494535874,-0.06322497824052165
-3.87375,0.00366394189449007,-0.09573096472266188
-3.8725,0.002994810694512972,-0.07763484853672814
-3.87125,0.002660245094524423,-0.05786316603728203
-3.87,0.002325679494535874,-0.05015556099512506
-3.86875,0.002325679494535874,-0.04814488141891021
-3.8675,0.0003182858946045794,0.007819033452403385
-3.86625,-0.002023673305315264,0.07249589315398136
-3.865,-0.003027370105280911,0.09092712260261758
-3.86375,-0.002358238905303813,0.07651725230641108
-3.8625,-0.002023673305315264,0.06043181569669221
-3.86125,-0.001689107705326715,0.05372955044264268
-3.86,-0.001354542105338166,0.03730900057022132
-3.85875,0.001656548294558776,-0.03909682332594334
-3.8575,0.00366394189449007,-0.09305005862104207
-3.85625,0.003329376294501521,-0.08500734031618262
-3.855,0.002660245094524423,-0.06322497824052165
-3.85375,0.002660245094524423,-0.05149601404593497
-3.8525,0.002660245094524423,-0.04982044773242258
-3.85125,0.001321982694570227,-0.01831980103838979
-3.85,-0.001354542105338166,0.05607534328156001
-3.84875,-0.003027370105280911,0.08925155628910519
-3.8475,-0.002692804505292362,0.08221417777235318
-3.84625,-0.002023673305315264,0.06478828811182441
-3.845,-0.001689107705326715,0.05507000349345258
-3.84375,-0.001689107705326715,0.04937307802751048
-3.8425,0.0006528514945931285,-0.01295798883515016
-3.84125,0.003329376294501521,-0.08299666073996777
-3.84,0.003329376294501521,-0.09170960557023215
-3.83875,0.002994810694512972,-0.06959213023186871
-3.8375,0.002660245094524423,-0.05417692014755478
-3.83625,0.002325679494535874,-0.05015556099512506
-3.835,0.001991113894547325,-0.03842659680053838
-3.83375,-0.0006854109053610678,0.03295252815508913
-3.8325,-0.002692804505292362,0.08221417777235318
-3.83125,-0.003027370105280911,0.08724087671289034
-3.83,-0.002358238905303813,0.0691447605269566
-3.82875,-0.001689107705326715,0.05641045654426249
-3.8275,-0.001689107705326715,0.05205398412913029
-3.82625,-0.0003508453053725187,0.01418618544375044
-3.825,0.002660245094524423,-0.06456543129133155
-3.82375,0.00366394189449007,-0.09573096472266188
-3.8225,0.002994810694512972,-0.07763484853672814
-3.82125,0.002660245094524423,-0.05786316603728203
-3.82,0.002325679494535874,-0.05049067425782754
-3.81875,0.002325679494535874,-0.04847999468161268
-3.8175,0.0003182858946045794,0.007483920189700909
-3.81625,-0.002023673305315264,0.07216077989127889
-3.815,-0.003027370105280911,0.09092712260261758
-3.81375,-0.002692804505292362,0.07651725230641108
-3.8125,-0.002023673305315264,0.06110204222209716
-3.81125,-0.001689107705326715,0.05473489023075011
-3.81,-0.001019976505349617,0.03831434035832876
-3.80875,0.001321982694570227,-0.03876171006324086
-3.8075,0.003329376294501521,-0.09271494535833959
-3.80625,0.003329376294501521,-0.08433711379077767
-3.805,0.002660245094524423,-0.06288986497781918
-3.80375,0.002325679494535874,-0.05183112730863745
-3.8025,0.002325679494535874,-0.05015556099512506
-3.80125,0.001321982694570227,-0.01899002756379474
-3.8,-0.001354542105338166,0.05540511675615506
-3.79875,-0.002692804505292362,0.09025689607721263
-3.7975,-0.002692804505292362,0.08288440429775815
-3.79625,-0.002023673305315264,0.06512340137452688
-3.795,-0.001689107705326715,0.05540511675615506
-3.79375,-0.001689107705326715,0.05004330455291543
-3.7925,0.0003182858946045794,-0.01228776230974521
-3.79125,0.002994810694512972,-0.08232643421456282
-3.79,0.003329376294501521,-0.09204471883293464
-3.78875,0.002660245094524423,-0.07026235675727366
-3.7875,0.002325679494535874,-0.05484714667295974
-3.78625,0.002325679494535874,-0.05082578752053002
-3.785,0.001991113894547325,-0.03943193658864581
-3.78375,-0.0003508453053725187,0.0319471883669817
-3.7825,-0.002358238905303813,0.08187906450965071
-3.78125,-0.003027370105280911,0.08657065018748539
-3.78,-0.002358238905303813,0.0691447605269566
-3.77875,-0.002023673305315264,0.05674556980696497
-3.7775,-0.001689107705326715,0.05272421065453525
-3.77625,-0.0003508453053725187,0.01485641196915539
-3.775,0.002325679494535874,-0.06423031802862908
-3.77375,0.003329376294501521,-0.09707141777347178
-3.7725,0.003329376294501521,-0.07897530158753804
-3.77125,0.002660245094524423,-0.0595387323507944
-3.77,0.002660245094524423,-0.05149601404593497
-3.76875,0.002325679494535874,-0.05015556099512506
-3.7675,0.0003182858946045794,0.006143467138891003
-3.76625,-0.002023673305315264,0.07115544010317146
-3.765,-0.003027370105280911,0.08925155628910519
-3.76375,-0.002358238905303813,0.0748416859928987
-3.7625,-0.002023673305315264,0.05842113612047735
-3.76125,-0.002023673305315264,0.05272421065453525
-3.76,-0.001019976505349617,0.03663877404481637
-3.75875,0.001656548294558776,-0.04110750290215819
-3.7575,0.00366394189449007,-0.09506073819725692
-3.75625,0.003329376294501521,-0.08634779336699254
-3.755,0.002660245094524423,-0.06456543129133155
-3.75375,0.002325679494535874,-0.05283646709674487
-3.7525,0.002660245094524423,-0.05183112730863745
-3.75125,0.001321982694570227,-0.02066559387730712
-3.75,-0.001689107705326715,0.05473489023075011
-3.74875,-0.003027370105280911,0.08791110323829529
-3.7475,-0.002692804505292362,0.08087372472154328
-3.74625,-0.002023673305315264,0.06311272179831202
-3.745,-0.001354542105338166,0.05372955044264268
-3.74375,-0.001689107705326715,0.04803262497670058
-3.7425,0.0006528514945931285,-0.01429844188596007
-3.74125,0.003329376294501521,-0.08433711379077767
-3.74,0.00366394189449007,-0.09372028514644702
-3.73875,0.002994810694512972,-0.07126769654538109
-3.7375,0.002660245094524423,-0.05585248646106716
-3.73625,0.002660245094524423,-0.05116090078323249
-3.735,0.001991113894547325,-0.03909682332594334
-3.73375,-0.0006854109053610678,0.03261741489238665
-3.7325,-0.002692804505292362,0.08321951756046062
-3.73125,-0.003027370105280911,0.08757598997559281
-3.73,-0.002023673305315264,0.06947987378965907
-3.72875,-0.001689107705326715,0.05574023001885754
-3.7275,-0.001689107705326715,0.05171887086642782
-3.72625,-0.0003508453053725187,0.01184039260483311
-3.725,0.002660245094524423,-0.06892190370646376
-3.72375,0.00366394189449007,-0.09941721061238912
-3.7225,0.003329376294501521,-0.07931041485024053
-3.72125,0.002660245094524423,-0.05920361908809193
-3.72,0.002325679494535874,-0.05082578752053002
-3.71875,0.002325679494535874,-0.04915022120701763
-3.7175,0.0003182858946045794,0.007483920189700909
-3.71625,-0.002023673305315264,0.07182566662857641
-3.715,-0.003027370105280911,0.09159734912802253
-3.71375,-0.002358238905303813,0.07651725230641108
-3.7125,-0.001689107705326715,0.05976158917128726
-3.71125,-0.001689107705326715,0.05272421065453525
-3.71,-0.001019976505349617,0.03328764141779161
-3.70875,0.001991113894547325,-0.04747465489350525
-3.7075,0.00366394189449007,-0.09874698408698417
-3.70625,0.003329376294501521,-0.08567756684158757
-3.705,0.002660245094524423,-0.06322497824052165
-3.70375,0.002660245094524423,-0.05149601404593497
-3.7025,0.002660245094524423,-0.05082578752053002
-3.70125,0.001656548294558776,-0.01764957451298483
-3.7,-0.001019976505349617,0.05808602285777487
-3.69875,-0.003027370105280911,0.0905920093399151
-3.6975,-0.002692804505292362,0.08455997061127052
-3.69625,-0.002023673305315264,0.06545851463722936
-3.695,-0.001689107705326715,0.05439977696804763
-3.69375,-0.001689107705326715,0.0476975117139981
-3.6925,0.0009874170945816775,-0.01932514082649722
-3.69125,0.003329376294501521,-0.0896989259940173
-3.69,0.00366394189449007,-0.09372028514644702
-3.68875,0.002994810694512972,-0.07026235675727366
-3.6875,0.002660245094524423,-0.05451203341025726
-3.68625,0.002660245094524423,-0.04982044773242258
-3.685,0.002325679494535874,-0.03742125701243095
-3.68375,-0.0006854109053610678,0.0363036607821139
-3.6825,-0.002692804505292362,0.08556531039937795
-3.68125,-0.003027370105280911,0.09126223586532005
-3.68,-0.002358238905303813,0.07283100641668384
-3.67875,-0.002023673305315264,0.05942647590858478
-3.6775,-0.001689107705326715,0.05574023001885754
-3.67625,-0.0003508453053725187,0.01418618544375044
-3.675,0.002994810694512972,-0.06691122413024889
-3.67375,0.00366394189449007,-0.09472562493455444
-3.6725,0.003329376294501521,-0.07461882917240585
-3.67125,0.002660245094524423,-0.05451203341025726
-3.67,0.002325679494535874,-0.04747465489350525
-3.66875,0.002325679494535874,-0.04613420184269534
-3.6675,0.0003182858946045794,0.01117016607942815
-3.66625,-0.002023673305315264,0.07551191251830365
-3.665,-0.003027370105280911,0.0949484817550473
-3.66375,-0.002358238905303813,0.07986838493343586
-3.6625,-0.002023673305315264,0.06344783506101449
-3.66125,-0.001689107705326715,0.05674556980696497
-3.66,-0.001019976505349617,0.03663877404481637
-3.65875,0.001991113894547325,-0.04479374879188544
-3.6575,0.00366394189449007,-0.09707141777347178
-3.65625,0.003329376294501521,-0.08433711379077767
-3.655,0.002660245094524423,-0.06221963845241422
-3.65375,0.002325679494535874,-0.05049067425782754
-3.6525,0.002660245094524423,-0.04982044773242258
-3.65125,0.001321982694570227,-0.01697934798757988
-3.65,-0.001354542105338166,0.0590913626458823
-3.64875,-0.003027370105280911,0.09260268891612997
-3.6475,-0.002692804505292362,0.08657065018748539
-3.64625,-0.002023673305315264,0.0678043074761467
-3.645,-0.001689107705326715,0.0577509095950724
-3.64375,-0.001689107705326715,0.05104864434102287
-3.6425,0.0006528514945931285,-0.01597400819947245
-3.64125,0.003329376294501521,-0.08735313315509996
-3.64,0.00366394189449007,-0.0910393790448272
-3.63875,0.002994810694512972,-0.06791656391835632
-3.6375,0.002325679494535874,-0.05183112730863745
-3.63625,0.002325679494535874,-0.04713954163080277
-3.635,0.001991113894547325,-0.03474035091081114
-3.63375,-0.0006854109053610678,0.03898456688373371
-3.6325,-0.002692804505292362,0.08891644302640273
-3.63125,-0.003027370105280911,0.09427825522964234
-3.63,-0.002358238905303813,0.07551191251830365
-3.62875,-0.002023673305315264,0.06210738201020459
-3.6275,-0.002023673305315264,0.05708068306966745
-3.62625,-0.0006854109053610678,0.01418618544375044
-3.625,0.002325679494535874,-0.06791656391835632
-3.62375,0.003329376294501521,-0.09573096472266188
-3.6225,0.002994810694512972,-0.0752890556978108
-3.62125,0.002325679494535874,-0.05484714667295974
-3.62,0.002660245094524423,-0.04713954163080277
-3.61875,0.002325679494535874,-0.04579908857999287
-3.6175,0.0003182858946045794,0.01150527934213063
-3.61625,-0.002358238905303813,0.07517679925560118
-3.615,-0.003027370105280911,0.09461336849234482
-3.61375,-0.002692804505292362,0.07919815840803089
-3.6125,-0.002023673305315264,0.06244249527290707
-3.61125,-0.002023673305315264,0.05473489023075011
-3.61,-0.001354542105338166,0.03496320773130399
-3.60875,0.001656548294558776,-0.04747465489350525
-3.6075,0.00366394189449007,-0.0997523238750916
-3.60625,0.003329376294501521,-0.08668290662969501
-3.605,0.002660245094524423,-0.06456543129133155
-3.60375,0.002325679494535874,-0.05283646709674487
-3.6025,0.002325679494535874,-0.05149601404593497
-3.60125,0.001321982694570227,-0.01865491430109226
-3.6,-0.001354542105338166,0.05741579633236992
-3.59875,-0.003027370105280911,0.0905920093399151
-3.5975,-0.003027370105280911,0.08422485734856805
-3.59625,-0.002358238905303813,0.06545851463722936
-3.595,-0.002023673305315264,0.05473489023075011
-3.59375,-0.001689107705326715,0.04803262497670058
-3.5925,0.0006528514945931285,-0.01798468777568731
-3.59125,0.003329376294501521,-0.08869358620590986
-3.59,0.00366394189449007,-0.09372028514644702
-3.58875,0.002994810694512972,-0.07126769654538109
-3.5875,0.002660245094524423,-0.05518225993566221
-3.58625,0.002660245094524423,-0.05116090078323249
-3.585,0.001991113894547325,-0.03909682332594334
-3.58375,-0.0006854109053610678,0.03362275468049408
-3.5825,-0.002692804505292362,0.0835546308231631
-3.58125,-0.003027370105280911,0.08992178281451015
-3.58,-0.002358238905303813,0.07182566662857641
-3.57875,-0.002023673305315264,0.0577509095950724
-3.5775,-0.001689107705326715,0.05272421065453525
-3.57625,-0.0003508453053725187,0.0104999395540232
-3.575,0.002660245094524423,-0.07059747001997613
-3.57375,0.00366394189449007,-0.0984118708242817
-3.5725,0.002994810694512972,-0.07830507506213309
-3.57125,0.002325679494535874,-0.05853339256268698
-3.57,0.002325679494535874,-0.05049067425782754
-3.56875,0.002325679494535874,-0.04915022120701763
-3.5675,0.0003182858946045794,0.007483920189700909
-3.56625,-0.002023673305315264,0.07283100641668384
-3.565,-0.003027370105280911,0.09260268891612997
-3.56375,-0.002692804505292362,0.07819281861992347
-3.5625,-0.002023673305315264,0.06210738201020459
-3.56125,-0.002023673305315264,0.05540511675615506
-3.56,-0.001354542105338166,0.03864945362103123
-3.55875,0.001321982694570227,-0.03909682332594334
-3.5575,0.003329376294501521,-0.09338517188374454
-3.55625,0.003329376294501521,-0.08534245357888511
-3.555,0.002660245094524423,-0.06456543129133155
-3.55375,0.002660245094524423,-0.05317158035944735
-3.5525,0.002660245094524423,-0.05183112730863745
-3.55125,0.001321982694570227,-0.0210007071400096
-3.55,-0.001354542105338166,0.05272421065453525
-3.54875,-0.002692804505292362,0.0862355369247829
-3.5475,-0.002692804505292362,0.08053861145884081
-3.54625,-0.002023673305315264,0.06344783506101449
-3.545,-0.001689107705326715,0.05406466370534516
-3.54375,-0.001689107705326715,0.04870285150210553
-3.5425,0.0006528514945931285,-0.01228776230974521
-3.54125,0.002994810694512972,-0.08199132095186033
-3.54,0.00366394189449007,-0.09237983209563712
-3.53875,0.002994810694512972,-0.07126769654538109
-3.5375,0.002660245094524423,-0.05618759972376964
-3.53625,0.002325679494535874,-0.05216624057133992
-3.535,0.001991113894547325,-0.04043727637675324
-3.53375,-0.0006854109053610678,0.03060673531617179
-3.5325,-0.002358238905303813,0.08087372472154328
-3.53125,-0.002692804505292362,0.0862355369247829
-3.53,-0.002023673305315264,0.06880964726425412
-3.52875,-0.001689107705326715,0.05641045654426249
-3.5275,-0.001689107705326715,0.05205398412913029
-3.52625,-0.0003508453053725187,0.01485641196915539
-3.525,0.002325679494535874,-0.06356009150322413
-3.52375,0.003329376294501521,-0.09640119124806683
-3.5225,0.002994810694512972,-0.07931041485024053
-3.52125,0.002660245094524423,-0.05987384561349688
-3.52,0.002660245094524423,-0.05216624057133992
-3.51875,0.002660245094524423,-0.05015556099512506
-3.5175,0.0006528514945931285,0.004803014088081097
-3.51625,-0.002023673305315264,0.06947987378965907
-3.515,-0.002692804505292362,0.08858132976370024
-3.51375,-0.002358238905303813,0.07450657273019623
-3.5125,-0.001689107705326715,0.0590913626458823
-3.51125,-0.001689107705326715,0.05238909739183277
-3.51,-0.001354542105338166,0.03663877404481637
-3.50875,0.001656548294558776,-0.03909682332594334
-3.5075,0.00366394189449007,-0.09372028514644702
-3.50625,0.003329376294501521,-0.08634779336699254
-3.505,0.002994810694512972,-0.06523565781673651
-3.50375,0.002660245094524423,-0.05350669362214983
-3.5025,0.002660245094524423,-0.05216624057133992
-3.50125,0.001656548294558776,-0.02133582040271208
-3.5,-0.001019976505349617,0.0533944371799402
-3.49875,-0.002692804505292362,0.08690576345018786
-3.4975,-0.002692804505292362,0.08120883798424576
-3.49625,-0.002023673305315264,0.06445317484912193
-3.495,-0.001689107705326715,0.05473489023075011
-3.49375,-0.001689107705326715,0.04836773823940305
-3.4925,0.0006528514945931285,-0.01329310209785264
-3.49125,0.003329376294501521,-0.08266154747726528
-3.49,0.00366394189449007,-0.09237983209563712
-3.48875,0.003329376294501521,-0.07093258328267861
-3.4875,0.002660245094524423,-0.05585248646106716
-3.48625,0.002660245094524423,-0.05183112730863745
-3.485,0.002325679494535874,-0.04077238963945572
-3.48375,-0.0003508453053725187,0.02993650879076684
-3.4825,-0.002358238905303813,0.08020349819613833
-3.48125,-0.002692804505292362,0.08523019713667547
-3.48,-0.002023673305315264,0.0691447605269566
-3.47875,-0.001689107705326715,0.05641045654426249
-3.4775,-0.001689107705326715,0.05238909739183277
-3.47625,-0.0003508453053725187,0.01552663849456035
-3.475,0.002660245094524423,-0.06255475171511669
-3.47375,0.00399850749447862,-0.09606607798536436
-3.4725,0.003329376294501521,-0.079645528112943
-3.47125,0.002994810694512972,-0.06054407213890184
-3.47,0.002994810694512972,-0.05317158035944735
-3.46875,0.002660245094524423,-0.05149601404593497
-3.4675,0.0006528514945931285,0.003797674299973667
-3.46625,-0.001689107705326715,0.06813942073884917
-3.465,-0.002692804505292362,0.08724087671289034
-3.46375,-0.002358238905303813,0.07316611967938631
-3.4625,-0.001689107705326715,0.05808602285777487
-3.46125,-0.001354542105338166,0.05171887086642782
-3.46,-0.0006854109053610678,0.03563343425670894
-3.45875,0.001991113894547325,-0.04144261616486067
-3.4575,0.00399850749447862,-0.09606607798536436
-3.45625,0.00366394189449007,-0.08869358620590986
-3.455,0.003329376294501521,-0.06724633739295137
-3.45375,0.002660245094524423,-0.05551737319836469
-3.4525,0.002660245094524423,-0.05384180688485231
-3.45125,0.001656548294558776,-0.02267627345352198
-3.45,-0.001019976505349617,0.05238909739183277
-3.44875,-0.002358238905303813,0.0862355369247829
-3.4475,-0.002023673305315264,0.08020349819613833
-3.44625,-0.001689107705326715,0.06311272179831202
-3.445,-0.001354542105338166,0.0533944371799402
-3.44375,-0.001354542105338166,0.04836773823940305
-3.4425,0.0006528514945931285,-0.01329310209785264
-3.44125,0.003329376294501521,-0.08366688726537272
-3.44,0.00399850749447862,-0.09405539840914949
-3.43875,0.003329376294501521,-0.07294326285889347
-3.4375,0.002660245094524423,-0.05752805277457955
-3.43625,0.002660245094524423,-0.05317158035944735
-3.435,0.002660245094524423,-0.04144261616486067
-3.43375,0.0003182858946045794,0.03094184857887427
-3.4325,-0.002023673305315264,0.08154395124694823
-3.43125,-0.002358238905303813,0.08724087671289034
-3.43,-0.001689107705326715,0.07115544010317146
-3.42875,-0.001689107705326715,0.05875624938317982
-3.4275,-0.001689107705326715,0.05473489023075011
-3.42625,-0.0003508453053725187,0.01653197828266778
-3.425,0.002994810694512972,-0.06255475171511669
-3.42375,0.00399850749447862,-0.09539585145995941
-3.4225,0.00366394189449007,-0.07763484853672814
-3.42125,0.003329376294501521,-0.05719293951187707
-3.42,0.003329376294501521,-0.04881510794431516
-3.41875,0.002994810694512972,-0.0468044283681003
-3.4175,0.0006528514945931285,0.008824373240510816
-3.41625,-0.002023673305315264,0.0735012329420888
-3.415,-0.002358238905303813,0.09327291544153492
-3.41375,-0.002358238905303813,0.07886304514532842
-3.4125,-0.001689107705326715,0.06344783506101449
-3.41125,-0.001689107705326715,0.0577509095950724
-3.41,-0.001019976505349617,0.042000586248056
-3.40875,0.001991113894547325,-0.03507546417351361
-3.4075,0.00399850749447862,-0.0896989259940173
-3.40625,0.00366394189449007,-0.08132109442645538
-3.405,0.002994810694512972,-0.05987384561349688
-3.40375,0.002660245094524423,-0.04881510794431516
-3.4025,0.002660245094524423,-0.04747465489350525
-3.40125,0.001321982694570227,-0.01664423472487741
-3.4,-0.001354542105338166,0.0590913626458823
-3.39875,-0.002692804505292362,0.09293780217883243
-3.3975,-0.002358238905303813,0.08690576345018786
-3.39625,-0.002023673305315264,0.0691447605269566
-3.395,-0.001354542105338166,0.05976158917128726
-3.39375,-0.001354542105338166,0.05439977696804763
-3.3925,0.0006528514945931285,-0.007931289894613013
-3.39125,0.003329376294501521,-0.07897530158753804
-3.39,0.00366394189449007,-0.08936381273131483
-3.38875,0.002994810694512972,-0.06791656391835632
-3.3875,0.002660245094524423,-0.05183112730863745
-3.38625,0.002660245094524423,-0.04780976815620773
-3.385,0.002325679494535874,-0.036751030487026
-3.38375,-0.0003508453053725187,0.03496320773130399
-3.3825,-0.002358238905303813,0.08590042366208044
-3.38125,-0.002692804505292362,0.09092712260261758
-3.38,-0.002023673305315264,0.07383634620479128
-3.37875,-0.001689107705326715,0.06043181569669221
-3.3775,-0.001689107705326715,0.05607534328156001
-3.37625,-0.0003508453053725187,0.01787243133347768
-3.375,0.002660245094524423,-0.06188452518971174
-3.37375,0.00366394189449007,-0.09506073819725692
-3.3725,0.003329376294501521,-0.07729973527402567
-3.37125,0.002994810694512972,-0.05786316603728203
-3.37,0.002660245094524423,-0.04982044773242258
-3.36875,0.002660245094524423,-0.04847999468161268
-3.3675,0.0006528514945931285,0.008154146715105863
-3.36625,-0.001689107705326715,0.0735012329420888
-3.365,-0.003027370105280911,0.09293780217883243
-3.36375,-0.002358238905303813,0.07819281861992347
-3.3625,-0.002023673305315264,0.06177226874750211
-3.36125,-0.001689107705326715,0.05507000349345258
-3.36,-0.001019976505349617,0.03797922709562628
-3.35875,0.001991113894547325,-0.04110750290215819
-3.3575,0.00399850749447862,-0.09573096472266188
-3.35625,0.00366394189449007,-0.08601268010429006
-3.355,0.002994810694512972,-0.06423031802862908
-3.35375,0.002660245094524423,-0.05216624057133992
-3.3525,0.002660245094524423,-0.05082578752053002
-3.35125,0.001656548294558776,-0.01932514082649722
-3.35,-0.001354542105338166,0.05674556980696497
-3.34875,-0.002692804505292362,0.0905920093399151
-3.3475,-0.002358238905303813,0.08455997061127052
-3.34625,-0.002023673305315264,0.06612874116263431
-3.345,-0.001689107705326715,0.05607534328156001
-3.34375,-0.001354542105338166,0.05004330455291543
-3.3425,0.0006528514945931285,-0.01463355514866255
-3.34125,0.003329376294501521,-0.08634779336699254
-3.34,0.00399850749447862,-0.09372028514644702
-3.33875,0.003329376294501521,-0.07193792307078604
-3.3375,0.002660245094524423,-0.05585248646106716
-3.33625,0.002660245094524423,-0.05149601404593497
-3.335,0.002325679494535874,-0.03976704985134829
-3.33375,-0.0003508453053725187,0.03328764141779161
-3.3325,-0.002358238905303813,0.08455997061127052
-3.33125,-0.003027370105280911,0.08925155628910519
-3.33,-0.002023673305315264,0.07149055336587394
-3.32875,-0.001689107705326715,0.05808602285777487
-3.3275,-0.001689107705326715,0.05372955044264268
-3.32625,-0.0003508453053725187,0.01586175175726282
-3.325,0.002660245094524423,-0.06423031802862908
-3.32375,0.00366394189449007,-0.09740653103617426
-3.3225,0.003329376294501521,-0.07897530158753804
-3.32125,0.002994810694512972,-0.05886850582538945
-3.32,0.002660245094524423,-0.05116090078323249
-3.31875,0.002660245094524423,-0.04948533446972011
-3.3175,0.0006528514945931285,0.006813693664295956
-3.31625,-0.002023673305315264,0.07316611967938631
-3.315,-0.002692804505292362,0.09260268891612997
-3.31375,-0.002358238905303813,0.07819281861992347
-3.3125,-0.001689107705326715,0.06210738201020459
-3.31125,-0.001689107705326715,0.05540511675615506
-3.31,-0.001019976505349617,0.03931968014643619
-3.30875,0.001656548294558776,-0.03842659680053838
-3.3075,0.00366394189449007,-0.09439051167185197
-3.30625,0.003329376294501521,-0.08634779336699254
-3.305,0.002994810694512972,-0.06423031802862908
-3.30375,0.002660245094524423,-0.05283646709674487
-3.3025,0.002660245094524423,-0.05149601404593497
-3.30125,0.001656548294558776,-0.01932514082649722
-3.3,-0.001019976505349617,0.05708068306966745
-3.29875,-0.002692804505292362,0.09126223586532005
-3.2975,-0.002692804505292362,0.08455997061127052
-3.29625,-0.001689107705326715,0.06646385442533678
-3.295,-0.001689107705326715,0.05641045654426249
-3.29375,-0.001689107705326715,0.05071353107832039
-3.2925,0.0006528514945931285,-0.01295798883515016
-3.29125,0.003329376294501521,-0.08433711379077767
-3.29,0.00366394189449007,-0.09372028514644702
-3.28875,0.002994810694512972,-0.07093258328267861
-3.2875,0.002660245094524423,-0.05484714667295974
-3.28625,0.002660245094524423,-0.05082578752053002
-3.285,0.002325679494535874,-0.03876171006324086
-3.28375,-0.0003508453053725187,0.03395786794319656
-3.2825,-0.002692804505292362,0.084895083873973
-3.28125,-0.002692804505292362,0.0905920093399151
-3.28,-0.002358238905303813,0.07283100641668384
-3.27875,-0.001689107705326715,0.05976158917128726
-3.2775,-0.001689107705326715,0.05540511675615506
-3.27625,-0.0003508453053725187,0.01720220480807273
-3.275,0.002660245094524423,-0.06322497824052165
-3.27375,0.00366394189449007,-0.09707141777347178
-3.2725,0.003329376294501521,-0.07864018832483557
-3.27125,0.002994810694512972,-0.05853339256268698
-3.27,0.002660245094524423,-0.05116090078323249
-3.26875,0.002660245094524423,-0.04915022120701763
-3.2675,0.0003182858946045794,0.006813693664295956
-3.26625,-0.002023673305315264,0.07316611967938631
-3.265,-0.003027370105280911,0.09260268891612997
-3.26375,-0.002358238905303813,0.07819281861992347
-3.2625,-0.001689107705326715,0.06244249527290707
-3.26125,-0.001689107705326715,0.05641045654426249
-3.26,-0.001354542105338166,0.03898456688373371
-3.25875,0.001656548294558776,-0.03909682332594334
-3.2575,0.00366394189449007,-0.09405539840914949
-3.25625,0.003329376294501521,-0.08500734031618262
-3.255,0.002660245094524423,-0.06288986497781918
-3.25375,0.002325679494535874,-0.05049067425782754
-3.2525,0.002325679494535874,-0.04847999468161268
-3.25125,0.001656548294558776,-0.01697934798757988
-3.25,-0.001354542105338166,0.05942647590858478
-3.24875,-0.003027370105280911,0.09394314196693987
-3.2475,-0.002692804505292362,0.08824621650099776
-3.24625,-0.002358238905303813,0.06981498705236155
-3.245,-0.002023673305315264,0.06009670243398973
-3.24375,-0.001689107705326715,0.05473489023075011
-3.2425,0.0003182858946045794,-0.008266403157315489
-3.24125,0.002994810694512972,-0.079645528112943
-3.24,0.00366394189449007,-0.09003403925671978
-3.23875,0.002994810694512972,-0.06858679044376127
-3.2375,0.002660245094524423,-0.0525013538340424
-3.23625,0.002325679494535874,-0.04847999468161268
-3.235,0.001991113894547325,-0.03708614374972848
-3.23375,-0.0006854109053610678,0.03563343425670894
-3.2325,-0.002692804505292362,0.08690576345018786
-3.23125,-0.003027370105280911,0.09226757565342748
-3.23,-0.002358238905303813,0.07417145946749375
-3.22875,-0.002023673305315264,0.06009670243398973
-3.2275,-0.002023673305315264,0.05574023001885754
-3.22625,-0.0006854109053610678,0.01686709154537025
-3.225,0.002325679494535874,-0.06423031802862908
-3.22375,0.00399850749447862,-0.09740653103617426
-3.2225,0.003329376294501521,-0.07864018832483557
-3.22125,0.002660245094524423,-0.05853339256268698
-3.22,0.002325679494535874,-0.05082578752053002
-3.21875,0.002325679494535874,-0.04948533446972011
-3.2175,0.0003182858946045794,0.00647858040159348
-3.21625,-0.002023673305315264,0.07316611967938631
-3.215,-0.003027370105280911,0.09193246239072501
-3.21375,-0.002692804505292362,0.07752259209451852
-3.2125,-0.002023673305315264,0.06110204222209716
-3.21125,-0.002023673305315264,0.05439977696804763
-3.21,-0.001354542105338166,0.03864945362103123
-3.20875,0.001656548294558776,-0.03909682332594334
-3.2075,0.00366394189449007,-0.09506073819725692
-3.20625,0.003329376294501521,-0.08835847294320739
-3.205,0.002994810694512972,-0.06624099760484393
-3.20375,0.002660245094524423,-0.05451203341025726
-3.2025,0.002660245094524423,-0.05317158035944735
-3.20125,0.001321982694570227,-0.02200604692811703
-3.2,-0.001354542105338166,0.05439977696804763
-3.19875,-0.003027370105280911,0.08858132976370024
-3.1975,-0.003027370105280911,0.08254929103505566
-3.19625,-0.002023673305315264,0.06478828811182441
-3.195,-0.001689107705326715,0.05473489023075011
-3.19375,-0.001689107705326715,0.04937307802751048
-3.1925,0.0006528514945931285,-0.01362821536055512
-3.19125,0.002994810694512972,-0.08567756684158757
-3.19,0.00366394189449007,-0.09573096472266188
-3.18875,0.002994810694512972,-0.0739486026470009
-3.1875,0.002660245094524423,-0.05853339256268698
-3.18625,0.002660245094524423,-0.05350669362214983
-3.185,0.002325679494535874,-0.0424479559529681
-3.18375,-0.0003508453053725187,0.03060673531617179
-3.1825,-0.002358238905303813,0.08254929103505566
-3.18125,-0.002692804505292362,0.08791110323829529
-3.18,-0.002358238905303813,0.07015010031506402
-3.17875,-0.001689107705326715,0.05708068306966745
-3.1775,-0.001689107705326715,0.05305932391723772
-3.17625,-0.0006854109053610678,0.0161968650199653
-3.175,0.002325679494535874,-0.0638952047659266
-3.17375,0.00366394189449007,-0.09774164429887673
-3.1725,0.002994810694512972,-0.07998064137564548
-3.17125,0.002660245094524423,-0.05987384561349688
-3.17,0.002325679494535874,-0.05216624057133992
-3.16875,0.002660245094524423,-0.05049067425782754
-3.1675,0.0006528514945931285,0.006143467138891003
-3.16625,-0.002023673305315264,0.07249589315398136
-3.165,-0.003027370105280911,0.09226757565342748
-3.16375,-0.002692804505292362,0.07819281861992347
-3.1625,-0.002023673305315264,0.06210738201020459
-3.16125,-0.001689107705326715,0.05507000349345258
-3.16,-0.001354542105338166,0.03864945362103123
-3.15875,0.001656548294558776,-0.03976704985134829
-3.1575,0.00366394189449007,-0.09439051167185197
-3.15625,0.003329376294501521,-0.08567756684158757
-3.155,0.002994810694512972,-0.06356009150322413
-3.15375,0.002325679494535874,-0.05149601404593497
-3.1525,0.002325679494535874,-0.05049067425782754
-3.15125,0.001321982694570227,-0.01932514082649722
-3.15,-0.001354542105338166,0.05741579633236992
-3.14875,-0.003027370105280911,0.09193246239072501
-3.1475,-0.002692804505292362,0.08556531039937795
-3.14625,-0.002358238905303813,0.06813942073884917
-3.145,-0.002023673305315264,0.05842113612047735
-3.14375,-0.001689107705326715,0.05305932391723772
-3.1425,0.0003182858946045794,-0.00927174294542292
-3.14125,0.002994810694512972,-0.08098598116375291
-3.14,0.00366394189449007,-0.0910393790448272
-3.13875,0.002660245094524423,-0.06925701696916622
-3.1375,0.002325679494535874,-0.05350669362214983
-3.13625,0.002325679494535874,-0.04915022120701763
-3.135,0.001991113894547325,-0.0380914835378359
-3.13375,-0.0006854109053610678,0.03429298120589903
-3.1325,-0.002692804505292362,0.08590042366208044
-3.13125,-0.003027370105280911,0.09092712260261758
-3.13,-0.002358238905303813,0.07316611967938631
-3.12875,-0.002023673305315264,0.06043181569669221
-3.1275,-0.002023673305315264,0.05607534328156001
-3.12625,-0.0006854109053610678,0.01887777112158511
-3.125,0.002325679494535874,-0.06188452518971174
-3.12375,0.00366394189449007,-0.09640119124806683
-3.1225,0.002994810694512972,-0.07830507506213309
-3.12125,0.002325679494535874,-0.05853339256268698
-3.12,0.002325679494535874,-0.05049067425782754
-3.11875,0.002325679494535874,-0.04915022120701763
-3.1175,0.0003182858946045794,0.007148806926998433
-3.11625,-0.002023673305315264,0.0735012329420888
-3.115,-0.003027370105280911,0.09293780217883243
-3.11375,-0.002692804505292362,0.07785770535722099
-3.1125,-0.002023673305315264,0.06210738201020459
-3.11125,-0.002023673305315264,0.05540511675615506
-3.11,-0.001354542105338166,0.03965479340913866
-3.10875,0.001321982694570227,-0.03842659680053838
-3.1075,0.003329376294501521,-0.09405539840914949
-3.10625,0.003329376294501521,-0.08735313315509996
-3.105,0.002660245094524423,-0.06523565781673651
-3.10375,0.002325679494535874,-0.05317158035944735
-3.1025,0.002325679494535874,-0.05183112730863745
-3.10125,0.001321982694570227,-0.02066559387730712
-3.1,-0.001354542105338166,0.05574023001885754
-3.09875,-0.003027370105280911,0.09092712260261758
-3.0975,-0.002692804505292362,0.08422485734856805
-3.09625,-0.002358238905303813,0.06612874116263431
-3.095,-0.002023673305315264,0.05641045654426249
-3.09375,-0.002023673305315264,0.05138375760372534
-3.0925,0.0003182858946045794,-0.0109473092589353
-3.09125,0.002660245094524423,-0.08266154747726528
-3.09,0.003329376294501521,-0.09305005862104207
-3.08875,0.002660245094524423,-0.07126769654538109
-3.0875,0.002325679494535874,-0.05518225993566221
-3.08625,0.002325679494535874,-0.05015556099512506
-3.085,0.001991113894547325,-0.03943193658864581
-3.08375,-0.0006854109053610678,0.03362275468049408
-3.0825,-0.002692804505292362,0.08590042366208044
-3.08125,-0.00336193570526946,0.09025689607721263
-3.08,-0.002692804505292362,0.07249589315398136
-3.07875,-0.002023673305315264,0.05942647590858478
-3.0775,-0.002023673305315264,0.05540511675615506
-3.07625,-0.0006854109053610678,0.01854265785888264
-3.075,0.002325679494535874,-0.06221963845241422
-3.07375,0.003329376294501521,-0.09673630451076931
-3.0725,0.002994810694512972,-0.07897530158753804
-3.07125,0.002660245094524423,-0.05886850582538945
-3.07,0.002325679494535874,-0.05116090078323249
-3.06875,0.002325679494535874,-0.04948533446972011
-3.0675,0.0003182858946045794,0.006143467138891003
-3.06625,-0.002358238905303813,0.07316611967938631
-3.065,-0.00336193570526946,0.09226757565342748
-3.06375,-0.002692804505292362,0.07785770535722099
-3.0625,-0.002358238905303813,0.06143715548479964
-3.06125,-0.002023673305315264,0.05507000349345258
-3.06,-0.001354542105338166,0.03965479340913866
-3.05875,0.001321982694570227,-0.0380914835378359
-3.0575,0.003329376294501521,-0.09405539840914949
-3.05625,0.003329376294501521,-0.08701801989239749
-3.055,0.002660245094524423,-0.06523565781673651
-3.05375,0.002325679494535874,-0.05283646709674487
-3.0525,0.002325679494535874,-0.05149601404593497
-3.05125,0.001321982694570227,-0.02066559387730712
-3.05,-0.001689107705326715,0.05574023001885754
-3.04875,-0.003027370105280911,0.09092712260261758
-3.0475,-0.003027370105280911,0.08388974408586557
-3.04625,-0.002023673305315264,0.06612874116263431
-3.045,-0.002023673305315264,0.05641045654426249
-3.04375,-0.001689107705326715,0.05205398412913029
-3.0425,0.0003182858946045794,-0.00927174294542292
-3.04125,0.002994810694512972,-0.08065086790105043
-3.04,0.003329376294501521,-0.09237983209563712
-3.03875,0.002660245094524423,-0.07059747001997613
-3.0375,0.002325679494535874,-0.05484714667295974
-3.03625,0.002325679494535874,-0.05015556099512506
-3.035,0.001991113894547325,-0.03943193658864581
-3.03375,-0.0006854109053610678,0.03295252815508913
-3.0325,-0.002692804505292362,0.08523019713667547
-3.03125,-0.003027370105280911,0.08992178281451015
-3.03,-0.002358238905303813,0.07216077989127889
-3.02875,-0.002023673305315264,0.0590913626458823
-3.0275,-0.002023673305315264,0.05439977696804763
-3.02625,-0.0006854109053610678,0.01720220480807273
-3.025,0.002325679494535874,-0.06288986497781918
-3.02375,0.003329376294501521,-0.09640119124806683
-3.0225,0.002994810694512972,-0.07864018832483557
-3.02125,0.002660245094524423,-0.0581982792999845
-3.02,0.002325679494535874,-0.05015556099512506
-3.01875,0.002325679494535874,-0.04915022120701763
-3.0175,0.0003182858946045794,0.00647858040159348
-3.01625,-0.002023673305315264,0.0735012329420888
-3.015,-0.00336193570526946,0.09293780217883243
-3.01375,-0.002692804505292362,0.07819281861992347
-3.0125,-0.002023673305315264,0.06177226874750211
-3.01125,-0.002023673305315264,0.05507000349345258
-3.01,-0.001354542105338166,0.03931968014643619
-3.00875,0.001321982694570227,-0.0380914835378359
-3.0075,0.003329376294501521,-0.09472562493455444
-3.00625,0.002994810694512972,-0.08802335968050491
-3.005,0.002660245094524423,-0.06523565781673651
-3.00375,0.002325679494535874,-0.05317158035944735
-3.0025,0.002660245094524423,-0.05149601404593497
-3.00125,0.001321982694570227,-0.0210007071400096
-3,-0.001689107705326715,0.05540511675615506
-2.99875,-0.003027370105280911,0.09025689607721263
-2.9975,-0.003027370105280911,0.08321951756046062
-2.99625,-0.002358238905303813,0.06579362789993183
-2.995,-0.001689107705326715,0.05607534328156001
-2.99375,-0.002023673305315264,0.05071353107832039
-2.9925,0.0003182858946045794,-0.01161753578434026
-2.99125,0.002994810694512972,-0.08366688726537272
-2.99,0.00366394189449007,-0.09439051167185197
-2.98875,0.002994810694512972,-0.07193792307078604
-2.9875,0.002325679494535874,-0.05652271298647212
-2.98625,0.002325679494535874,-0.05183112730863745
-2.985,0.001991113894547325,-0.04144261616486067
-2.98375,-0.0006854109053610678,0.03127696184157674
-2.9825,-0.002692804505292362,0.08388974408586557
-2.98125,-0.003027370105280911,0.08858132976370024
-2.98,-0.002358238905303813,0.07048521357776651
-2.97875,-0.002023673305315264,0.0577509095950724
-2.9775,-0.002023673305315264,0.05406466370534516
-2.97625,-0.0006854109053610678,0.01753731807077521
-2.975,0.002325679494535874,-0.06288986497781918
-2.97375,0.00366394189449007,-0.09807675756157921
-2.9725,0.002994810694512972,-0.08065086790105043
-2.97125,0.002325679494535874,-0.06054407213890184
-2.97,0.002325679494535874,-0.05283646709674487
-2.96875,0.002325679494535874,-0.05116090078323249
-2.9675,0.0003182858946045794,0.00446790082537862
-2.96625,-0.002358238905303813,0.07149055336587394
-2.965,-0.00336193570526946,0.09092712260261758
-2.96375,-0.002692804505292362,0.0761821390437086
-2.9625,-0.002023673305315264,0.06043181569669221
-2.96125,-0.001689107705326715,0.05372955044264268
-2.96,-0.001354542105338166,0.03797922709562628
-2.95875,0.001321982694570227,-0.04010216311405077
-2.9575,0.003329376294501521,-0.09606607798536436
-2.95625,0.003329376294501521,-0.08902869946861235
-2.955,0.002660245094524423,-0.06657611086754642
-2.95375,0.002325679494535874,-0.05451203341025726
-2.9525,0.002325679494535874,-0.05317158035944735
-2.95125,0.001321982694570227,-0.0223411601908195
-2.95,-0.001354542105338166,0.05406466370534516
-2.94875,-0.003027370105280911,0.08958666955180768
-2.9475,-0.002692804505292362,0.08321951756046062
-2.94625,-0.002358238905303813,0.06545851463722936
-2.945,-0.002023673305315264,0.05540511675615506
-2.94375,-0.002023673305315264,0.05037841781561792
-2.9425,0.0003182858946045794,-0.01195264904704273
-2.94125,0.002994810694512972,-0.0840020005280752
-2.94,0.003329376294501521,-0.09472562493455444
-2.93875,0.002660245094524423,-0.072608149596191
-2.9375,0.002325679494535874,-0.05618759972376964
-2.93625,0.002325679494535874,-0.05116090078323249
-2.935,0.002325679494535874,-0.04077238963945572
-2.93375,-0.0006854109053610678,0.03161207510427922
-2.9325,-0.002692804505292362,0.08422485734856805
-2.93125,-0.003027370105280911,0.08891644302640273
-2.93,-0.002358238905303813,0.07115544010317146
-2.92875,-0.002023673305315264,0.0577509095950724
-2.9275,-0.002023673305315264,0.0533944371799402
-2.92625,-0.0006854109053610678,0.01552663849456035
-2.925,0.002325679494535874,-0.06624099760484393
-2.92375,0.00366394189449007,-0.09874698408698417
-2.9225,0.003329376294501521,-0.079645528112943
-2.92125,0.002660245094524423,-0.0595387323507944
-2.92,0.002660245094524423,-0.05116090078323249
-2.91875,0.002325679494535874,-0.05015556099512506
-2.9175,0.0006528514945931285,0.005808353876188527
-2.91625,-0.002358238905303813,0.07182566662857641
-2.915,-0.003027370105280911,0.09159734912802253
-2.91375,-0.002692804505292362,0.07752259209451852
-2.9125,-0.002023673305315264,0.06110204222209716
-2.91125,-0.002023673305315264,0.05406466370534516
-2.91,-0.001354542105338166,0.03898456688373371
-2.90875,0.001321982694570227,-0.03909682332594334
-2.9075,0.00366394189449007,-0.09472562493455444
-2.90625,0.003329376294501521,-0.08668290662969501
-2.905,0.002660245094524423,-0.06490054455403403
-2.90375,0.002325679494535874,-0.05317158035944735
-2.9025,0.002325679494535874,-0.05149601404593497
-2.90125,0.001321982694570227,-0.02133582040271208
-2.9,-0.001689107705326715,0.05473489023075011
-2.89875,-0.003027370105280911,0.08925155628910519
-2.8975,-0.003027370105280911,0.08288440429775815
-2.89625,-0.002358238905303813,0.06478828811182441
-2.895,-0.001689107705326715,0.05473489023075011
-2.89375,-0.001689107705326715,0.05037841781561792
-2.8925,0.0003182858946045794,-0.0109473092589353
-2.89125,0.002994810694512972,-0.08266154747726528
-2.89,0.003329376294501521,-0.09372028514644702
-2.88875,0.002660245094524423,-0.07193792307078604
-2.8875,0.002325679494535874,-0.05618759972376964
-2.88625,0.002325679494535874,-0.05149601404593497
-2.885,0.001991113894547325,-0.04110750290215819
-2.88375,-0.0006854109053610678,0.03094184857887427
-2.8825,-0.002692804505292362,0.08321951756046062
-2.88125,-0.003027370105280911,0.08858132976370024
-2.88,-0.002358238905303813,0.07015010031506402
-2.87875,-0.002023673305315264,0.0577509095950724
-2.8775,-0.002023673305315264,0.05372955044264268
-2.87625,-0.0006854109053610678,0.01686709154537025
-2.875,0.002325679494535874,-0.06356009150322413
-2.87375,0.003329376294501521,-0.09807675756157921
-2.8725,0.002994810694512972,-0.08098598116375291
-2.87125,0.002660245094524423,-0.06087918540160431
-2.87,0.002325679494535874,-0.05283646709674487
-2.86875,0.002325679494535874,-0.05116090078323249
-2.8675,0.0006528514945931285,0.004132787562676143
-2.86625,-0.002023673305315264,0.07149055336587394
-2.865,-0.003027370105280911,0.09126223586532005
-2.86375,-0.002358238905303813,0.07685236556911357
-2.8625,-0.002023673305315264,0.06009670243398973
-2.86125,-0.002023673305315264,0.05272421065453525
-2.86,-0.001354542105338166,0.03797922709562628
-2.85875,0.001321982694570227,-0.03909682332594334
-2.8575,0.003329376294501521,-0.09539585145995941
-2.85625,0.003329376294501521,-0.08835847294320739
-2.855,0.002994810694512972,-0.06624099760484393
-2.85375,0.002660245094524423,-0.05384180688485231
-2.8525,0.002325679494535874,-0.0525013538340424
-2.85125,0.001656548294558776,-0.02200604692811703
-2.85,-0.001354542105338166,0.05439977696804763
-2.84875,-0.003027370105280911,0.08958666955180768
-2.8475,-0.003027370105280911,0.08321951756046062
-2.84625,-0.002358238905303813,0.06478828811182441
-2.845,-0.002023673305315264,0.05507000349345258
-2.84375,-0.001689107705326715,0.04970819129021296
-2.8425,0.0003182858946045794,-0.01161753578434026
-2.84125,0.002994810694512972,-0.08299666073996777
-2.84,0.00366394189449007,-0.09405539840914949
-2.83875,0.002994810694512972,-0.07193792307078604
-2.8375,0.002660245094524423,-0.05585248646106716
-2.83625,0.002660245094524423,-0.05082578752053002
-2.835,0.002325679494535874,-0.04043727637675324
-2.83375,-0.0006854109053610678,0.03127696184157674
-2.8325,-0.002692804505292362,0.0835546308231631
-2.83125,-0.003027370105280911,0.08891644302640273
-2.83,-0.002358238905303813,0.07115544010317146
-2.82875,-0.002023673305315264,0.0577509095950724
-2.8275,-0.001689107705326715,0.05372955044264268
-2.82625,-0.0006854109053610678,0.01753731807077521
-2.825,0.002325679494535874,-0.06221963845241422
-2.82375,0.00366394189449007,-0.09640119124806683
-2.8225,0.003329376294501521,-0.07864018832483557
-2.82125,0.002660245094524423,-0.05886850582538945
-2.82,0.002325679494535874,-0.05082578752053002
-2.81875,0.002325679494535874,-0.04948533446972011
-2.8175,0.0003182858946045794,0.005808353876188527
-2.81625,-0.002023673305315264,0.07249589315398136
-2.815,-0.003027370105280911,0.09193246239072501
-2.81375,-0.002692804505292362,0.07785770535722099
-2.8125,-0.002023673305315264,0.06210738201020459
-2.81125,-0.002023673305315264,0.05540511675615506
-2.81,-0.001354542105338166,0.04099524645994856
-2.80875,0.001321982694570227,-0.03708614374972848
-2.8075,0.003329376294501521,-0.09439051167185197
-2.80625,0.003329376294501521,-0.08668290662969501
-2.805,0.002660245094524423,-0.06490054455403403
-2.80375,0.002325679494535874,-0.05350669362214983
-2.8025,0.002325679494535874,-0.05216624057133992
-2.80125,0.001321982694570227,-0.0223411601908195
-2.8,-0.001354542105338166,0.05406466370534516
-2.79875,-0.003027370105280911,0.0905920093399151
-2.7975,-0.003027370105280911,0.08422485734856805
-2.79625,-0.002358238905303813,0.06579362789993183
-2.795,-0.002023673305315264,0.05574023001885754
-2.79375,-0.002023673305315264,0.05138375760372534
-2.7925,0.0003182858946045794,-0.009606856208125396
-2.79125,0.002994810694512972,-0.08132109442645538
-2.79,0.003329376294501521,-0.09338517188374454
-2.78875,0.002660245094524423,-0.07093258328267861
-2.7875,0.002325679494535874,-0.05518225993566221
-2.78625,0.002325679494535874,-0.05049067425782754
-2.785,0.001991113894547325,-0.03976704985134829
-2.78375,-0.0006854109053610678,0.03228230162968418
-2.7825,-0.002692804505292362,0.084895083873973
-2.78125,-0.003027370105280911,0.08992178281451015
-2.78,-0.002358238905303813,0.07216077989127889
-2.77875,-0.002023673305315264,0.05976158917128726
-2.7775,-0.002023673305315264,0.05540511675615506
-2.77625,-0.0006854109053610678,0.01988311090969254
-2.775,0.002325679494535874,-0.06054407213890184
-2.77375,0.00366394189449007,-0.09640119124806683
-2.7725,0.002994810694512972,-0.07931041485024053
-2.77125,0.002325679494535874,-0.05920361908809193
-2.77,0.002325679494535874,-0.05082578752053002
-2.76875,0.002325679494535874,-0.04948533446972011
-2.7675,0.0003182858946045794,0.005138127350783573
-2.76625,-0.002358238905303813,0.07216077989127889
-2.765,-0.00336193570526946,0.09226757565342748
-2.76375,-0.003027370105280911,0.07819281861992347
-2.7625,-0.002358238905303813,0.06110204222209716
-2.76125,-0.002023673305315264,0.05473489023075011
-2.76,-0.001689107705326715,0.03898456688373371
-2.75875,0.001321982694570227,-0.0380914835378359
-2.7575,0.003329376294501521,-0.09472562493455444
-2.75625,0.002994810694512972,-0.08768824641780244
-2.755,0.002660245094524423,-0.06557077107943898
-2.75375,0.002325679494535874,-0.05317158035944735
-2.7525,0.002325679494535874,-0.05183112730863745
-2.75125,0.001321982694570227,-0.0223411601908195
-2.75,-0.001689107705326715,0.05372955044264268
-2.74875,-0.003027370105280911,0.08925155628910519
-2.7475,-0.003027370105280911,0.08321951756046062
-2.74625,-0.002358238905303813,0.06478828811182441
-2.745,-0.002023673305315264,0.05439977696804763
-2.74375,-0.002023673305315264,0.05004330455291543
-2.7425,0.0003182858946045794,-0.01027708273353035
-2.74125,0.002994810694512972,-0.08232643421456282
-2.74,0.003329376294501521,-0.09405539840914949
-2.73875,0.002660245094524423,-0.072608149596191
-2.7375,0.002325679494535874,-0.05618759972376964
-2.73625,0.002325679494535874,-0.05183112730863745
-2.735,0.001991113894547325,-0.04144261616486067
-2.73375,-0.0006854109053610678,0.03060673531617179
-2.7325,-0.002692804505292362,0.08321951756046062
-2.73125,-0.003027370105280911,0.08858132976370024
-2.73,-0.002358238905303813,0.07149055336587394
-2.72875,-0.002023673305315264,0.05842113612047735
-2.7275,-0.002023673305315264,0.05406466370534516
-2.72625,-0.0006854109053610678,0.01787243133347768
-2.725,0.002325679494535874,-0.06255475171511669
-2.72375,0.00366394189449007,-0.09807675756157921
-2.7225,0.002994810694512972,-0.08065086790105043
-2.72125,0.002660245094524423,-0.06087918540160431
-2.72,0.002325679494535874,-0.0525013538340424
-2.71875,0.002325679494535874,-0.05116090078323249
-2.7175,0.0006528514945931285,0.003797674299973667
-2.71625,-0.002023673305315264,0.07082032684046899
-2.715,-0.003027370105280911,0.0905920093399151
-2.71375,-0.002358238905303813,0.07685236556911357
-2.7125,-0.002023673305315264,0.06143715548479964
-2.71125,-0.002023673305315264,0.05473489023075011
-2.71,-0.001689107705326715,0.04032501993454361
-2.70875,0.001321982694570227,-0.03708614374972848
-2.7075,0.003329376294501521,-0.09372028514644702
-2.70625,0.002994810694512972,-0.08701801989239749
-2.705,0.002660245094524423,-0.06523565781673651
-2.70375,0.002325679494535874,-0.05317158035944735
-2.7025,0.002325679494535874,-0.05149601404593497
-2.70125,0.001321982694570227,-0.02167093366541455
-2.7,-0.001354542105338166,0.05439977696804763
-2.69875,-0.003027370105280911,0.09025689607721263
-2.6975,-0.002692804505292362,0.08455997061127052
-2.69625,-0.002358238905303813,0.06646385442533678
-2.695,-0.002023673305315264,0.05641045654426249
-2.69375,-0.002023673305315264,0.05138375760372534
-2.6925,0.0003182858946045794,-0.009606856208125396
-2.69125,0.002994810694512972,-0.08165620768915786
-2.69,0.003329376294501521,-0.09338517188374454
-2.68875,0.002994810694512972,-0.07126769654538109
-2.6875,0.002325679494535874,-0.05518225993566221
-2.68625,0.002325679494535874,-0.05082578752053002
-2.685,0.001991113894547325,-0.04043727637675324
-2.68375,-0.0006854109053610678,0.03127696184157674
-2.6825,-0.002692804505292362,0.08455997061127052
-2.68125,-0.003027370105280911,0.09025689607721263
-2.68,-0.002692804505292362,0.07283100641668384
-2.67875,-0.002023673305315264,0.05942647590858478
-2.6775,-0.002023673305315264,0.05473489023075011
-2.67625,-0.0006854109053610678,0.01921288438428759
-2.675,0.002325679494535874,-0.06087918540160431
-2.67375,0.003329376294501521,-0.09640119124806683
-2.6725,0.002994810694512972,-0.07931041485024053
-2.67125,0.002325679494535874,-0.05920361908809193
-2.67,0.002325679494535874,-0.05082578752053002
-2.66875,0.002325679494535874,-0.04982044773242258
-2.6675,0.0003182858946045794,0.004803014088081097
-2.66625,-0.002358238905303813,0.07216077989127889
-2.665,-0.003027370105280911,0.09226757565342748
-2.66375,-0.002692804505292362,0.07852793188262594
-2.6625,-0.002023673305315264,0.06244249527290707
-2.66125,-0.002023673305315264,0.05540511675615506
-2.66,-0.001689107705326715,0.04066013319724609
-2.65875,0.001321982694570227,-0.036751030487026
-2.6575,0.003329376294501521,-0.09405539840914949
-2.65625,0.002994810694512972,-0.08735313315509996
-2.655,0.002660245094524423,-0.06456543129133155
-2.65375,0.002325679494535874,-0.05183112730863745
-2.6525,0.002325679494535874,-0.05015556099512506
-2.65125,0.001321982694570227,-0.0210007071400096
-2.65,-0.001354542105338166,0.05540511675615506
-2.64875,-0.003027370105280911,0.09126223586532005
-2.6475,-0.003027370105280911,0.08523019713667547
-2.64625,-0.002358238905303813,0.06679896768803927
-2.645,-0.002023673305315264,0.05674556980696497
-2.64375,-0.002023673305315264,0.05205398412913029
-2.6425,0.0003182858946045794,-0.008936629682720442
-2.64125,0.002994810694512972,-0.08098598116375291
-2.64,0.003329376294501521,-0.09338517188374454
-2.63875,0.002994810694512972,-0.07160280980808356
-2.6375,0.002660245094524423,-0.05551737319836469
-2.63625,0.002660245094524423,-0.05015556099512506
-2.635,0.001991113894547325,-0.03943193658864581
-2.63375,-0.0006854109053610678,0.0319471883669817
-2.6325,-0.002692804505292362,0.08455997061127052
-2.63125,-0.00336193570526946,0.09092712260261758
-2.63,-0.002692804505292362,0.07283100641668384
-2.62875,-0.002358238905303813,0.0590913626458823
-2.6275,-0.002023673305315264,0.05507000349345258
-2.62625,-0.001019976505349617,0.01954799764699007
-2.625,0.002325679494535874,-0.06087918540160431
-2.62375,0.003329376294501521,-0.09673630451076931
-2.6225,0.003329376294501521,-0.07931041485024053
-2.62125,0.002660245094524423,-0.05920361908809193
-2.62,0.002325679494535874,-0.05116090078323249
-2.61875,0.002325679494535874,-0.05015556099512506
-2.6175,0.0003182858946045794,0.003797674299973667
-2.61625,-0.002358238905303813,0.07082032684046899
-2.615,-0.00336193570526946,0.09126223586532005
-2.61375,-0.002692804505292362,0.07718747883181604
-2.6125,-0.002023673305315264,0.06110204222209716
-2.61125,-0.001689107705326715,0.05406466370534516
-2.61,-0.001354542105338166,0.03898456688373371
-2.60875,0.001321982694570227,-0.03876171006324086
-2.6075,0.00366394189449007,-0.09573096472266188
-2.60625,0.003329376294501521,-0.08902869946861235
-2.605,0.002660245094524423,-0.06724633739295137
-2.60375,0.002325679494535874,-0.05518225993566221
-2.6025,0.002325679494535874,-0.05384180688485231
-2.60125,0.001321982694570227,-0.02435183976703437
-2.6,-0.001354542105338166,0.05205398412913029
-2.59875,-0.003027370105280911,0.08824621650099776
-2.5975,-0.002692804505292362,0.08254929103505566
-2.59625,-0.002023673305315264,0.06445317484912193
-2.595,-0.001689107705326715,0.05439977696804763
-2.59375,-0.001689107705326715,0.049037964764808
-2.5925,0.0003182858946045794,-0.01161753578434026
-2.59125,0.002994810694512972,-0.08433711379077767
-2.59,0.003329376294501521,-0.09707141777347178
-2.58875,0.002994810694512972,-0.07562416896051329
-2.5875,0.002660245094524423,-0.05920361908809193
-2.58625,0.002325679494535874,-0.05451203341025726
-2.585,0.001991113894547325,-0.04445863552918296
-2.58375,-0.0003508453053725187,0.02826094247725446
-2.5825,-0.002358238905303813,0.08087372472154328
-2.58125,-0.003027370105280911,0.08690576345018786
-2.58,-0.002358238905303813,0.06847453400155165
-2.57875,-0.002023673305315264,0.05507000349345258
-2.5775,-0.002023673305315264,0.05071353107832039
-2.57625,-0.0006854109053610678,0.01519152523185787
-2.575,0.002325679494535874,-0.06590588434214147
-2.57375,0.00366394189449007,-0.100757663663199
-2.5725,0.003329376294501521,-0.08299666073996777
-2.57125,0.002660245094524423,-0.06255475171511669
-2.57,0.002660245094524423,-0.05451203341025726
-2.56875,0.002660245094524423,-0.05283646709674487
-2.5675,0.0006528514945931285,0.001451881461056331
-2.56625,-0.002023673305315264,0.0691447605269566
-2.565,-0.003027370105280911,0.08958666955180768
-2.56375,-0.002692804505292362,0.07551191251830365
-2.5625,-0.002023673305315264,0.0590913626458823
-2.56125,-0.001689107705326715,0.05205398412913029
-2.56,-0.001354542105338166,0.0376441138329238
-2.55875,0.001321982694570227,-0.03943193658864581
-2.5575,0.00366394189449007,-0.09640119124806683
-2.55625,0.00366394189449007,-0.09003403925671978
-2.555,0.002994810694512972,-0.06758145065565384
-2.55375,0.002660245094524423,-0.05518225993566221
-2.5525,0.002660245094524423,-0.05350669362214983
-2.55125,0.001656548294558776,-0.02368161324162941
-2.55,-0.001354542105338166,0.05272421065453525
-2.54875,-0.003027370105280911,0.08891644302640273
-2.5475,-0.002692804505292362,0.08321951756046062
-2.54625,-0.002023673305315264,0.06512340137452688
-2.545,-0.002023673305315264,0.05540511675615506
-2.54375,-0.001689107705326715,0.05138375760372534
-2.5425,0.0006528514945931285,-0.009606856208125396
-2.54125,0.003329376294501521,-0.08232643421456282
-2.54,0.00366394189449007,-0.09472562493455444
-2.53875,0.002994810694512972,-0.072608149596191
-2.5375,0.002660245094524423,-0.05618759972376964
-2.53625,0.002325679494535874,-0.05149601404593497
-2.535,0.002325679494535874,-0.04144261616486067
-2.53375,-0.0003508453053725187,0.03060673531617179
-2.5325,-0.002692804505292362,0.0835546308231631
-2.53125,-0.003027370105280911,0.09025689607721263
-2.53,-0.002023673305315264,0.07249589315398136
-2.52875,-0.001689107705326715,0.0590913626458823
-2.5275,-0.001689107705326715,0.05439977696804763
-2.52625,-0.0006854109053610678,0.01887777112158511
-2.525,0.002325679494535874,-0.06188452518971174
-2.52375,0.00366394189449007,-0.09807675756157921
-2.5225,0.003329376294501521,-0.08031575463834796
-2.52125,0.002660245094524423,-0.05987384561349688
-2.52,0.002325679494535874,-0.05183112730863745
-2.51875,0.002325679494535874,-0.05082578752053002
-2.5175,0.0006528514945931285,0.004803014088081097
-2.51625,-0.002023673305315264,0.07249589315398136
-2.515,-0.003027370105280911,0.09260268891612997
-2.51375,-0.002358238905303813,0.07852793188262594
-2.5125,-0.002023673305315264,0.06210738201020459
-2.51125,-0.002023673305315264,0.05507000349345258
-2.51,-0.001354542105338166,0.04099524645994856
-2.50875,0.001321982694570227,-0.03641591722432352
-2.5075,0.003329376294501521,-0.09372028514644702
-2.50625,0.003329376294501521,-0.08735313315509996
-2.505,0.002660245094524423,-0.06490054455403403
-2.50375,0.002660245094524423,-0.0525013538340424
-2.5025,0.002660245094524423,-0.05082578752053002
-2.50125,0.001656548294558776,-0.02167093366541455
-2.5,-0.001354542105338166,0.05507000349345258
-2.49875,-0.003027370105280911,0.09126223586532005
-2.4975,-0.002692804505292362,0.08590042366208044
-2.49625,-0.002358238905303813,0.06813942073884917
-2.495,-0.002023673305315264,0.05741579633236992
-2.49375,-0.002023673305315264,0.05238909739183277
-2.4925,0.0003182858946045794,-0.008266403157315489
-2.49125,0.002994810694512972,-0.08065086790105043
-2.49,0.00366394189449007,-0.09338517188374454
-2.48875,0.002994810694512972,-0.07160280980808356
-2.4875,0.002660245094524423,-0.05518225993566221
-2.48625,0.002325679494535874,-0.05049067425782754
-2.485,0.001991113894547325,-0.04043727637675324
-2.48375,-0.0006854109053610678,0.03127696184157674
-2.4825,-0.002692804505292362,0.08455997061127052
-2.48125,-0.00336193570526946,0.09092712260261758
-2.48,-0.002692804505292362,0.07316611967938631
-2.47875,-0.002023673305315264,0.05976158917128726
-2.4775,-0.001689107705326715,0.05540511675615506
-2.47625,-0.0003508453053725187,0.0205533374350975
-2.475,0.002325679494535874,-0.06020895887619936
-2.47375,0.00366394189449007,-0.09673630451076931
-2.4725,0.002994810694512972,-0.07931041485024053
-2.47125,0.002325679494535874,-0.05920361908809193
-2.47,0.002325679494535874,-0.05082578752053002
-2.46875,0.002325679494535874,-0.04948533446972011
-2.4675,0.0003182858946045794,0.005138127350783573
-2.46625,-0.002023673305315264,0.07283100641668384
-2.465,-0.00336193570526946,0.09327291544153492
-2.46375,-0.002358238905303813,0.07986838493343586
-2.4625,-0.002023673305315264,0.06344783506101449
-2.46125,-0.001689107705326715,0.05641045654426249
-2.46,-0.001354542105338166,0.04133035972265105
-2.45875,0.001321982694570227,-0.03641591722432352
-2.4575,0.003329376294501521,-0.09405539840914949
-2.45625,0.002994810694512972,-0.08735313315509996
-2.455,0.002660245094524423,-0.06523565781673651
-2.45375,0.002325679494535874,-0.05317158035944735
-2.4525,0.002325679494535874,-0.05149601404593497
-2.45125,0.001321982694570227,-0.0223411601908195
-2.45,-0.001354542105338166,0.05439977696804763
-2.44875,-0.002692804505292362,0.0905920093399151
-2.4475,-0.002692804505292362,0.084895083873973
-2.44625,-0.002358238905303813,0.06646385442533678
-2.445,-0.002023673305315264,0.05641045654426249
-2.44375,-0.002023673305315264,0.05171887086642782
-2.4425,0.0003182858946045794,-0.008936629682720442
-2.44125,0.002994810694512972,-0.08165620768915786
-2.44,0.003329376294501521,-0.09472562493455444
-2.43875,0.002994810694512972,-0.07294326285889347
-2.4375,0.002660245094524423,-0.05618759972376964
-2.43625,0.002660245094524423,-0.05149601404593497
-2.435,0.002325679494535874,-0.04144261616486067
-2.43375,-0.0003508453053725187,0.03060673531617179
-2.4325,-0.002692804505292362,0.0835546308231631
-2.43125,-0.003027370105280911,0.08992178281451015
-2.43,-0.002358238905303813,0.07182566662857641
-2.42875,-0.002023673305315264,0.05842113612047735
-2.4275,-0.002023673305315264,0.05372955044264268
-2.42625,-0.0006854109053610678,0.01787243133347768
-2.425,0.002325679494535874,-0.06322497824052165
-2.42375,0.00366394189449007,-0.0984118708242817
-2.4225,0.003329376294501521,-0.07998064137564548
-2.42125,0.002660245094524423,-0.0595387323507944
-2.42,0.002325679494535874,-0.05116090078323249
-2.41875,0.002325679494535874,-0.04982044773242258
-2.4175,0.0003182858946045794,0.00446790082537862
-2.41625,-0.002358238905303813,0.07249589315398136
-2.415,-0.00336193570526946,0.09327291544153492
-2.41375,-0.002692804505292362,0.07919815840803089
-2.4125,-0.002358238905303813,0.06277760853560954
-2.41125,-0.002023673305315264,0.05540511675615506
-2.41,-0.001354542105338166,0.04166547298535352
-2.40875,0.001321982694570227,-0.03541057743621609
-2.4075,0.003329376294501521,-0.09338517188374454
-2.40625,0.003329376294501521,-0.08668290662969501
-2.405,0.002660245094524423,-0.06456543129133155
-2.40375,0.002325679494535874,-0.05216624057133992
-2.4025,0.002325679494535874,-0.05015556099512506
-2.40125,0.001321982694570227,-0.02133582040271208
-2.4,-0.001689107705326715,0.05540511675615506
-2.39875,-0.003027370105280911,0.09159734912802253
-2.3975,-0.003027370105280911,0.0862355369247829
-2.39625,-0.002358238905303813,0.06813942073884917
-2.395,-0.002023673305315264,0.05808602285777487
-2.39375,-0.002023673305315264,0.05305932391723772
-2.3925,0.0003182858946045794,-0.00726106336920806
-2.39125,0.002994810694512972,-0.08065086790105043
-2.39,0.003329376294501521,-0.09305005862104207
-2.38875,0.002660245094524423,-0.07059747001997613
-2.3875,0.002325679494535874,-0.05417692014755478
-2.38625,0.002325679494535874,-0.04948533446972011
-2.385,0.001991113894547325,-0.03976704985134829
-2.38375,-0.0006854109053610678,0.03228230162968418
-2.3825,-0.002692804505292362,0.08556531039937795
-2.38125,-0.003027370105280911,0.09193246239072501
-2.38,-0.002692804505292362,0.07417145946749375
-2.37875,-0.002023673305315264,0.06043181569669221
-2.3775,-0.002023673305315264,0.05607534328156001
-2.37625,-0.001019976505349617,0.02021822417239502
-2.375,0.001991113894547325,-0.06087918540160431
-2.37375,0.003329376294501521,-0.09673630451076931
-2.3725,0.002994810694512972,-0.07897530158753804
-2.37125,0.002325679494535874,-0.0581982792999845
-2.37,0.002325679494535874,-0.05015556099512506
-2.36875,0.002325679494535874,-0.04847999468161268
-2.3675,0.0003182858946045794,0.00547324061348605
-2.36625,-0.002358238905303813,0.07316611967938631
-2.365,-0.00336193570526946,0.09360802870423739
-2.36375,-0.002692804505292362,0.07953327167073337
-2.3625,-0.002358238905303813,0.06277760853560954
-2.36125,-0.002023673305315264,0.05540511675615506
-2.36,-0.001689107705326715,0.04066013319724609
-2.35875,0.001321982694570227,-0.036751030487026
-2.3575,0.003329376294501521,-0.09439051167185197
-2.35625,0.003329376294501521,-0.08701801989239749
-2.355,0.002660245094524423,-0.06456543129133155
-2.35375,0.002325679494535874,-0.05183112730863745
-2.3525,0.002325679494535874,-0.05015556099512506
-2.35125,0.001321982694570227,-0.02167093366541455
-2.35,-0.001689107705326715,0.05473489023075011
-2.34875,-0.003027370105280911,0.09092712260261758
-2.3475,-0.003027370105280911,0.08523019713667547
-2.34625,-0.002358238905303813,0.06679896768803927
-2.345,-0.002023673305315264,0.05674556980696497
-2.34375,-0.002023673305315264,0.05171887086642782
-2.3425,0.0003182858946045794,-0.008936629682720442
-2.34125,0.002994810694512972,-0.08165620768915786
-2.34,0.003329376294501521,-0.09439051167185197
-2.33875,0.002660245094524423,-0.07227303633348851
-2.3375,0.002325679494535874,-0.05618759972376964
-2.33625,0.002325679494535874,-0.05149601404593497
-2.335,0.001991113894547325,-0.04211284269026563
-2.33375,-0.0006854109053610678,0.02993650879076684
-2.3325,-0.002692804505292362,0.08321951756046062
-2.33125,-0.003027370105280911,0.08992178281451015
-2.33,-0.002358238905303813,0.07216077989127889
-2.32875,-0.002023673305315264,0.05842113612047735
-2.3275,-0.002023673305315264,0.05372955044264268
-2.32625,-0.0006854109053610678,0.01854265785888264
-2.325,0.001991113894547325,-0.06255475171511669
-2.32375,0.003329376294501521,-0.0984118708242817
-2.3225,0.002994810694512972,-0.08098598116375291
-2.32125,0.002325679494535874,-0.06087918540160431
-2.32,0.002325679494535874,-0.05283646709674487
-2.31875,0.002325679494535874,-0.05116090078323249
-2.3175,0.0003182858946045794,0.003127447774568714
-2.31625,-0.002023673305315264,0.06981498705236155
-2.315,-0.003027370105280911,0.09126223586532005
-2.31375,-0.002692804505292362,0.07718747883181604
-2.3125,-0.002023673305315264,0.06043181569669221
-2.31125,-0.002023673305315264,0.0533944371799402
-2.31,-0.001354542105338166,0.03663877404481637
-2.30875,0.001321982694570227,-0.04378840900377801
-2.3075,0.003329376294501521,-0.0997523238750916
-2.30625,0.003329376294501521,-0.08936381273131483
-2.305,0.002660245094524423,-0.06657611086754642
-2.30375,0.002325679494535874,-0.05384180688485231
-2.3025,0.002325679494535874,-0.05216624057133992
-2.30125,0.001321982694570227,-0.0223411601908195
-2.3,-0.001354542105338166,0.05439977696804763
-2.29875,-0.003027370105280911,0.08992178281451015
-2.2975,-0.003027370105280911,0.084895083873973
-2.29625,-0.002358238905303813,0.06579362789993183
-2.295,-0.002023673305315264,0.05507000349345258
-2.29375,-0.002023673305315264,0.04937307802751048
-2.2925,0.0003182858946045794,-0.01463355514866255
-2.29125,0.003329376294501521,-0.08835847294320739
-2.29,0.003329376294501521,-0.09506073819725692
-2.28875,0.002994810694512972,-0.07193792307078604
-2.2875,0.002325679494535874,-0.05518225993566221
-2.28625,0.002325679494535874,-0.05049067425782754
-2.285,0.001991113894547325,-0.04043727637675324
-2.28375,-0.0006854109053610678,0.03161207510427922
-2.2825,-0.002692804505292362,0.08422485734856805
-2.28125,-0.003027370105280911,0.09159734912802253
-2.28,-0.002358238905303813,0.0735012329420888
-2.27875,-0.002023673305315264,0.05976158917128726
-2.2775,-0.002023673305315264,0.05540511675615506
-2.27625,-0.0006854109053610678,0.01921288438428759
-2.275,0.002325679494535874,-0.06255475171511669
-2.27375,0.00366394189449007,-0.09740653103617426
-2.2725,0.002994810694512972,-0.07897530158753804
-2.27125,0.002325679494535874,-0.05853339256268698
-2.27,0.002325679494535874,-0.05015556099512506
-2.26875,0.002325679494535874,-0.04881510794431516
-2.2675,0.0003182858946045794,0.00547324061348605
-2.26625,-0.002358238905303813,0.07383634620479128
-2.265,-0.00336193570526946,0.0949484817550473
-2.26375,-0.002692804505292362,0.08120883798424576
-2.2625,-0.002023673305315264,0.06445317484912193
-2.26125,-0.002023673305315264,0.05741579633236992
-2.26,-0.001689107705326715,0.04267081277346095
-2.25875,0.0009874170945816775,-0.03407012438540619
-2.2575,0.003329376294501521,-0.09204471883293464
-2.25625,0.002994810694512972,-0.08668290662969501
-2.255,0.002660245094524423,-0.06490054455403403
-2.25375,0.002325679494535874,-0.05283646709674487
-2.2525,0.002325679494535874,-0.05116090078323249
-2.25125,0.001321982694570227,-0.0223411601908195
-2.25,-0.001354542105338166,0.05406466370534516
-2.24875,-0.003027370105280911,0.09092712260261758
-2.2475,-0.003027370105280911,0.0862355369247829
-2.24625,-0.002358238905303813,0.0678043074761467
-2.245,-0.002023673305315264,0.05708068306966745
-2.24375,-0.002023673305315264,0.05238909739183277
-2.2425,0.0003182858946045794,-0.008936629682720442
-2.24125,0.002994810694512972,-0.08232643421456282
-2.24,0.003329376294501521,-0.09405539840914949
-2.23875,0.002660245094524423,-0.07160280980808356
-2.2375,0.002325679494535874,-0.05518225993566221
-2.23625,0.002325679494535874,-0.05049067425782754
-2.235,0.001991113894547325,-0.04077238963945572
-2.23375,-0.0006854109053610678,0.03127696184157674
-2.2325,-0.002692804505292362,0.08455997061127052
-2.23125,-0.00336193570526946,0.09159734912802253
-2.23,-0.002692804505292362,0.07383634620479128
-2.22875,-0.002023673305315264,0.06009670243398973
-2.2275,-0.002023673305315264,0.05540511675615506
-2.22625,-0.0006854109053610678,0.01988311090969254
-2.225,0.002325679494535874,-0.06255475171511669
-2.22375,0.00366394189449007,-0.09774164429887673
-2.2225,0.002994810694512972,-0.07931041485024053
-2.22125,0.002660245094524423,-0.05853339256268698
-2.22,0.002325679494535874,-0.05049067425782754
-2.21875,0.002325679494535874,-0.04881510794431516
-2.2175,0.0003182858946045794,0.004803014088081097
-2.21625,-0.002358238905303813,0.07283100641668384
-2.215,-0.00336193570526946,0.09360802870423739
-2.21375,-0.003027370105280911,0.07986838493343586
-2.2125,-0.002358238905303813,0.06344783506101449
-2.21125,-0.002023673305315264,0.05607534328156001
-2.21,-0.001689107705326715,0.042000586248056
-2.20875,0.001321982694570227,-0.03507546417351361
-2.2075,0.003329376294501521,-0.09271494535833959
-2.20625,0.003329376294501521,-0.08701801989239749
-2.205,0.002660245094524423,-0.06490054455403403
-2.20375,0.002325679494535874,-0.05283646709674487
-2.2025,0.002325679494535874,-0.05149601404593497
-2.20125,0.001321982694570227,-0.02301138671622446
-2.2,-0.001689107705326715,0.0533944371799402
-2.19875,-0.003027370105280911,0.08958666955180768
-2.1975,-0.003027370105280911,0.084895083873973
-2.19625,-0.002358238905303813,0.06646385442533678
