#Digilent WaveForms Oscilloscope Acquisition
#Device Name: Discovery
#Serial Number: SN:210244566833
#Date Time: 2019-07-15 10:38:04.618
#Sample rate: 800Hz
#Samples: 8192
#Trigger: Source: Channel 1 Type: Edge Condition: Rising Level: 0 V Hyst.: Auto HoldOff: 0 s
#Channel 1: Range: 500 mV/div Offset: 0 V Attenuation: 1 X
#Channel 2: Range: 200 mV/div Offset: 0 V Attenuation: 1 X
#Power Supplies: ON
#Positive Supply: ON
#Negative Supply: ON

Time (s),Channel 1 (V),Channel 2 (V)
-5.12,-0.003027370105280911,0.09092712260261758
-5.11875,-0.003361935705269308,0.0939431419669385
-5.1175,-0.002692804505292362,0.07551191251830365
-5.11625,-0.002023673305315264,0.06009670243398973
-5.115,-0.002023673305315264,0.05104864434102287
-5.11375,-0.0006854109053596986,0.01016482629128415
-5.1125,0.002325679494535874,-0.07026235675727366
-5.11125,0.003329376294501521,-0.0997523238750916
-5.11,0.002994810694513124,-0.08065086790105912
-5.10875,0.002325679494535722,-0.06054407213889635
-5.1075,0.001991113894547325,-0.04847999468161268
-5.10625,0.001991113894547325,-0.04110750290215819
-5.105,-1.627970538305677e-05,0.01653197828264157
-5.10375,-0.002692804505292362,0.08053861145884081
-5.1025,-0.003696501305258009,0.09829961438207206
-5.10125,-0.003027370105280911,0.08321951756046062
-5.1,-0.002358238905303661,0.06545851463722388
-5.09875,-0.002023673305315264,0.0533944371799402
-5.0975,-0.001354542105338166,0.03328764141779161
-5.09625,0.001321982694569009,-0.04613420184265924
-5.095,0.003329376294501521,-0.09874698408698417
-5.09375,0.002994810694512972,-0.08902869946861235
-5.0925,0.002660245094524423,-0.06758145065565384
-5.09125,0.002325679494535722,-0.05283646709674137
-5.09,0.001991113894547325,-0.04512886205458792
-5.08875,0.0009874170945816775,-0.01161753578434026
-5.0875,-0.002023673305313895,0.06344783506098035
-5.08625,-0.003696501305258009,0.09561870828045226
-5.085,-0.00336193570526946,0.08824621650099776
-5.08375,-0.002692804505292362,0.06947987378965907
-5.0825,-0.002023673305315264,0.05540511675615033
-5.08125,-0.002023673305315264,0.04501660561237829
-5.08,0.0006528514945931285,-0.01932514082649722
-5.07875,0.002994810694511907,-0.0896989259939853
-5.0775,0.003329376294501217,-0.09673630451075955
-5.07625,0.002660245094524423,-0.0752890556978108
-5.075,0.002325679494535874,-0.05786316603728203
-5.07375,0.001991113894547477,-0.04814488141891463
-5.0725,0.001656548294558776,-0.0323945580718938
-5.07125,-0.001019976505349617,0.04032501993454361
-5.07,-0.00336193570526946,0.08958666955180768
-5.06875,-0.003696501305257553,0.093608028704229
-5.0675,-0.002692804505292362,0.07517679925560118
-5.06625,-0.002358238905303813,0.05942647590858478
-5.065,-0.001689107705327019,0.04970819129021738
-5.06375,-0.0006854109053610678,0.009494599765915769
-5.0625,0.002325679494535874,-0.07160280980808356
-5.06125,0.003329376294501521,-0.100757663663199
-5.06,0.002994810694512668,-0.08232643421455367
-5.05875,0.002325679494535874,-0.06221963845241422
-5.0575,0.001991113894547325,-0.05049067425782754
-5.05625,0.001656548294558928,-0.04345329574107873
-5.055,-0.0003508453053725187,0.01418618544375044
-5.05375,-0.002692804505292362,0.07886304514532842
-5.0525,-0.00336193570526946,0.09628893480585721
-5.05125,-0.003027370105280607,0.0815439512469403
-5.05,-0.002358238905303813,0.06411806158641944
-5.04875,-0.002023673305315264,0.05238909739183277
-5.0475,-0.00135454210533847,0.03127696184158635
-5.04625,0.00132198269457114,-0.04814488141893398
-5.045,0.003329376294501521,-0.1004225504004966
-5.04375,0.002994810694512972,-0.09003403925671978
-5.0425,0.002660245094524575,-0.06858679044377103
-5.04125,0.002325679494535874,-0.05384180688485231
-5.04,0.001991113894547325,-0.04613420184269534
-5.03875,0.0009874170945816775,-0.01228776230974521
-5.0375,-0.002023673305316025,0.06277760853562417
-5.03625,-0.003696501305258009,0.0949484817550473
-5.035,-0.00336193570526946,0.08757598997559281
-5.03375,-0.002692804505292667,0.06914476052696499
-5.0325,-0.002023673305315264,0.05507000349345258
-5.03125,-0.002023673305315264,0.04434637908697334
-5.03,0.0003182858946045794,-0.02033048061460465
-5.02875,0.002994810694513124,-0.09070426578212809
-5.0275,0.003329376294501521,-0.09807675756157921
-5.02625,0.002994810694512972,-0.07662950874862071
-5.025,0.002325679494536178,-0.05886850582539753
-5.02375,0.001991113894547325,-0.04915022120701763
-5.0225,0.001321982694570227,-0.03339989786000123
-5.02125,-0.001019976505349617,0.03898456688373371
-5.02,-0.003361935705269613,0.08858132976370207
-5.01875,-0.003696501305258009,0.09260268891612997
-5.0175,-0.002692804505292362,0.07450657273019623
-5.01625,-0.002358238905303965,0.05875624938318699
-5.015,-0.002023673305314656,0.04836773823938507
-5.01375,-0.0006854109053610678,0.008824373240510816
-5.0125,0.002325679494535874,-0.07160280980808356
-5.01125,0.003329376294501064,-0.1020981167139951
-5.01,0.002994810694512972,-0.08299666073996777
-5.00875,0.002325679494535874,-0.06288986497781918
-5.0075,0.001991113894547325,-0.05015556099512506
-5.00625,0.00199111389454626,-0.043118182478347
-5.005,-0.0003508453053725187,0.01418618544375044
-5.00375,-0.002692804505292362,0.07886304514532842
-5.0025,-0.003696501305257553,0.09628893480584928
-5.00125,-0.003027370105280911,0.08154395124694823
-5,-0.002358238905303813,0.06378294832371698
-4.99875,-0.002023673305315264,0.05205398412913029
-4.9975,-0.001354542105336949,0.03228230162964837
-4.99625,0.001321982694570227,-0.04646931510539782
-4.995,0.003329376294501521,-0.09908209734968665
-4.99375,0.002994810694513124,-0.08969892599402157
-4.9925,0.002660245094524423,-0.06791656391835632
-4.99125,0.002325679494535874,-0.05350669362214983
-4.99,0.001991113894547325,-0.04579908857999287
-4.98875,0.0009874170945803082,-0.01295798883511587
-4.9875,-0.002023673305315264,0.06244249527290707
-4.98625,-0.003696501305258009,0.09461336849234482
-4.985,-0.003361935705269613,0.08757598997559601
-4.98375,-0.002692804505292058,0.0684745340015451
-4.9825,-0.002023673305315264,0.05406466370534516
-4.98125,-0.001689107705326715,0.04401126582427085
-4.98,0.0003182858946036665,-0.02066559387727772
-4.97875,0.002994810694512972,-0.0910393790448272
-4.9775,0.003329376294501521,-0.09774164429887673
-4.97625,0.002994810694512972,-0.07629439548591824
-4.975,0.002325679494535874,-0.0585333925626824
-4.97375,0.002325679494535874,-0.04847999468161268
-4.9725,0.001656548294558776,-0.03306478459729876
-4.97125,-0.0010199765053484,0.03931968014640327
-4.97,-0.00336193570526946,0.08891644302640273
-4.96875,-0.003696501305258009,0.09260268891612997
-4.9675,-0.002692804505292362,0.07417145946749375
-4.96625,-0.002023673305315264,0.05775090959506798
-4.965,-0.002023673305315264,0.04803262497670058
-4.96375,-0.0006854109053610678,0.007819033452403385
-4.9625,0.002660245094522902,-0.07260814959615443
-4.96125,0.003329376294501521,-0.1024332299767114
-4.96,0.002994810694512972,-0.08366688726537272
-4.95875,0.002660245094524423,-0.0638952047659266
-4.9575,0.002325679494535722,-0.05116090078322945
-4.95625,0.001991113894547325,-0.04445863552918296
-4.955,-1.627970538396967e-05,0.01284573239294053
-4.95375,-0.002692804505291145,0.07718747883178678
-4.9525,-0.003696501305257705,0.09528359501774307
-4.95125,-0.003027370105280911,0.08053861145884081
-4.95,-0.002358238905303813,0.06311272179831202
-4.94875,-0.001689107705327019,0.05138375760373068
-4.9475,-0.001354542105338166,0.03127696184157674
-4.94625,0.001656548294558776,-0.04713954163080277
-4.945,0.00366394189449007,-0.1000874371377941
-4.94375,0.003329376294501217,-0.09070426578211498
-4.9425,0.002660245094524423,-0.06925701696916622
-4.94125,0.002325679494535874,-0.05451203341025726
-4.94,0.001991113894547477,-0.0468044283681038
-4.93875,0.0009874170945816775,-0.01329310209785264
-4.9375,-0.002023673305315264,0.06210738201020459
-4.93625,-0.00336193570526946,0.09528359501774977
-4.935,-0.003361935705269004,0.08757598997558397
-4.93375,-0.002358238905303813,0.06813942073884917
-4.9325,-0.002023673305315264,0.05406466370534516
-4.93125,-0.001689107705326867,0.0436761525615731
-4.93,0.0006528514945931285,-0.02066559387730712
-4.92875,0.002994810694512972,-0.09070426578212473
-4.9275,0.003329376294501521,-0.09807675756157921
-4.92625,0.002994810694512668,-0.07696462201131496
-4.925,0.002325679494535874,-0.05886850582538945
-4.92375,0.001991113894547325,-0.04881510794431516
-4.9225,0.001656548294558928,-0.03440523764811521
-4.92125,-0.00101997650535053,0.03831434035835161
-4.92,-0.003027370105280911,0.08858132976370024
-4.91875,-0.00336193570526946,0.09260268891612997
-4.9175,-0.002692804505292667,0.07450657273020446
-4.91625,-0.002358238905303813,0.05808602285777487
-4.915,-0.002023673305315264,0.04803262497670058
-4.91375,-0.0006854109053610678,0.008154146715105863
-4.9125,0.00232567949453633,-0.07227303633350222
-4.91125,0.003329376294501521,-0.1024332299767114
-4.91,0.002994810694512972,-0.08433711379077767
-4.90875,0.002660245094524575,-0.06356009150323358
-4.9075,0.002325679494535874,-0.05149601404593497
-4.90625,0.001991113894547325,-0.04445863552918296
-4.905,-1.627970538396967e-05,0.01284573239294053
-4.90375,-0.002358238905304422,0.07785770535722922
-4.9025,-0.003696501305258009,0.09595382154315472
-4.90125,-0.003027370105280911,0.08120883798424576
-4.9,-0.002358238905304118,0.06344783506102257
-4.89875,-0.001689107705326715,0.05138375760372534
-4.8975,-0.001354542105338166,0.03094184857887427
-4.89625,0.001321982694570227,-0.04747465489350525
-4.895,0.003329376294501521,-0.1004225504004921
-4.89375,0.003329376294501521,-0.09070426578212473
-4.8925,0.002660245094524423,-0.06925701696916622
-4.89125,0.002325679494536026,-0.05417692014756164
-4.89,0.001991113894546869,-0.04613420184268072
-4.88875,0.0009874170945816775,-0.01396332862325759
-4.8875,-0.001689107705326715,0.06177226874750211
-4.88625,-0.0033619357052687,0.09461336849232989
-4.885,-0.00336193570526946,0.08791110323829529
-4.88375,-0.002358238905303813,0.0691447605269566
-4.8825,-0.002023673305315264,0.05507000349345258
-4.88125,-0.00168910770532565,0.04535171887505166
-4.88,0.0006528514945931285,-0.01865491430109226
-4.87875,0.002994810694512972,-0.08902869946861235
-4.8775,0.003329376294501369,-0.09640119124806347
-4.87625,0.002994810694512972,-0.0752890556978108
-4.875,0.002325679494535874,-0.05752805277457955
-4.87375,0.001991113894547325,-0.04780976815620773
-4.8725,0.001656548294557559,-0.03272967133456321
-4.87125,-0.001019976505349617,0.03998990667184114
-4.87,-0.00336193570526946,0.09025689607721263
-4.86875,-0.00336193570526946,0.09461336849234284
-4.8675,-0.002692804505292362,0.07651725230641108
-4.86625,-0.002358238905303813,0.06009670243398973
-4.865,-0.002023673305315264,0.05004330455291543
-4.86375,-0.0003508453053713016,0.01117016607939127
-4.8625,0.002325679494535874,-0.06992724349457118
-4.86125,0.003329376294501521,-0.100757663663199
-4.86,0.002994810694513124,-0.0823264342145712
-4.85875,0.002325679494535874,-0.06288986497781339
-4.8575,0.002325679494535874,-0.05015556099512506
-4.85625,0.001991113894547325,-0.04345329574107553
-4.855,-1.627970538305677e-05,0.01318084565561726
-4.85375,-0.002692804505292362,0.07819281861992347
-4.8525,-0.003696501305258009,0.09595382154315472
-4.85125,-0.003027370105280911,0.08154395124694823
-4.85,-0.002358238905303661,0.06378294832371149
-4.84875,-0.002023673305315264,0.05171887086642782
-4.8475,-0.001354542105338166,0.03161207510427922
-4.84625,0.001321982694569009,-0.04713954163076695
-4.845,0.003329376294501521,-0.1004225504004966
-4.84375,0.002994810694512972,-0.0910393790448272
-4.8425,0.002660245094524423,-0.06959213023186871
-4.84125,0.002325679494535722,-0.05451203341025391
-4.84,0.001991113894547325,-0.04713954163080277
-4.83875,0.0006528514945931285,-0.01429844188596007
-4.8375,-0.00168910770532565,0.06110204222206288
-4.83625,-0.00336193570526946,0.09360802870423739
-4.835,-0.003027370105280911,0.08690576345018786
-4.83375,-0.002692804505292362,0.06813942073884917
-4.8325,-0.002023673305315112,0.05372955044263811
-4.83125,-0.001689107705326715,0.04367615256156838
-4.83,0.0003182858946045794,-0.01999536735190217
-4.82875,0.003329376294500152,-0.09070426578209258
-4.8275,0.003329376294501369,-0.09908209734967689
-4.82625,0.002994810694512972,-0.07763484853672814
-4.825,0.002660245094524423,-0.05987384561349688
-4.82375,0.002325679494536026,-0.04948533446972483
-4.8225,0.001656548294558776,-0.03474035091081114
-4.82125,-0.001019976505349617,0.0376441138329238
-4.82,-0.003027370105280911,0.08824621650099776
-4.81875,-0.003361935705269308,0.0922675756534191
-4.8175,-0.003027370105280911,0.07383634620479128
-4.81625,-0.002358238905303813,0.05741579633236992
-4.815,-0.002023673305315416,0.04769751171400252
-4.81375,-0.0006854109053610678,0.008824373240510816
-4.8125,0.002325679494535874,-0.07227303633348851
-4.81125,0.003329376294501521,-0.1027683432394139
-4.81,0.00299481069451282,-0.08467222705347086
-4.80875,0.002660245094524423,-0.06423031802862908
-4.8075,0.002325679494535874,-0.05216624057133992
-4.80625,0.001991113894547477,-0.04546397531729344
-4.805,-1.627970538396967e-05,0.01150527934213063
-4.80375,-0.002692804505292362,0.07685236556911357
-4.8025,-0.003696501305258009,0.0949484817550473
-4.80125,-0.003027370105280607,0.08053861145883288
-4.8,-0.002358238905303813,0.06311272179831202
-4.79875,-0.002023673305315264,0.05138375760372534
-4.7975,-0.00135454210533847,0.03161207510428821
-4.79625,0.00132198269457114,-0.04680442836812453
-4.795,0.003329376294501521,-0.1000874371377941
-4.79375,0.003329376294501521,-0.09137449230752968
-4.7925,0.002660245094524727,-0.06992724349458093
-4.79125,0.002325679494535874,-0.05484714667295974
-4.79,0.001991113894547325,-0.0468044283681003
-4.78875,0.0009874170945816775,-0.01429844188596007
-4.7875,-0.001689107705327476,0.06143715548481472
-4.78625,-0.00336193570526946,0.09461336849234482
-4.785,-0.00336193570526946,0.08791110323829529
-4.78375,-0.002692804505292667,0.06914476052696514
-4.7825,-0.002023673305315264,0.05473489023075011
-4.78125,-0.001689107705326715,0.04434637908697334
-4.78,0.0003182858946045794,-0.01966025408919969
-4.77875,0.002994810694513124,-0.08936381273131834
-4.7775,0.003329376294501521,-0.09707141777347178
-4.77625,0.002994810694512972,-0.07562416896051329
-4.775,0.002325679494536178,-0.0578631660372901
-4.77375,0.002325679494535874,-0.04780976815620773
-4.7725,0.001656548294558776,-0.03306478459729876
-4.77125,-0.001019976505349617,0.03931968014643619
-4.77,-0.00336193570526946,0.08992178281451198
-4.76875,-0.00336193570526946,0.09394314196693987
-4.7675,-0.002692804505292362,0.07651725230641108
-4.76625,-0.002023673305315569,0.06043181569669952
-4.765,-0.002023673305314656,0.05037841781559978
-4.76375,-0.0006854109053610678,0.0104999395540232
-4.7625,0.002325679494535874,-0.07093258328267861
-4.76125,0.003329376294501064,-0.1007576636631855
-4.76,0.002994810694512972,-0.08199132095186033
-4.75875,0.002660245094524423,-0.06154941192700927
-4.7575,0.002325679494535874,-0.04948533446972011
-4.75625,0.001991113894546412,-0.04244795595294235
-4.755,-1.627970538396967e-05,0.01418618544375044
-4.75375,-0.002692804505292362,0.07886304514532842
-4.7525,-0.003696501305257553,0.09762938785665858
-4.75125,-0.003027370105280911,0.08254929103505566
-4.75,-0.002358238905303813,0.06445317484912193
-4.74875,-0.002023673305315264,0.05238909739183277
-4.7475,-0.001354542105336797,0.03194718836694604
-4.74625,0.001656548294558776,-0.04646931510539782
-4.745,0.00366394189449007,-0.0997523238750916
-4.74375,0.003329376294501673,-0.08936381273131955
-4.7425,0.002660245094524423,-0.06791656391835632
-4.74125,0.002325679494535874,-0.05283646709674487
-4.74,0.002325679494535874,-0.04479374879188544
-4.73875,0.0009874170945803082,-0.01295798883511572
-4.7375,-0.002023673305315264,0.06277760853560954
-4.73625,-0.00336193570526946,0.09628893480585721
-4.735,-0.00336193570526946,0.0892515562891084
-4.73375,-0.002358238905303661,0.07082032684046244
-4.7325,-0.002023673305315264,0.05641045654426249
-4.73125,-0.002023673305315264,0.04635705866318819
-4.73,0.0003182858946035143,-0.01664423472484876
-4.72875,0.002994810694512972,-0.08768824641780244
-4.7275,0.003329376294501521,-0.09606607798536436
-4.72625,0.002994810694512972,-0.0752890556978108
-4.725,0.002325679494535874,-0.05786316603727745
-4.72375,0.002325679494535874,-0.04780976815620773
-4.7225,0.001656548294558776,-0.03339989786000123
-4.72125,-0.0010199765053484,0.03898456688370079
-4.72,-0.00336193570526946,0.08992178281451015
-4.71875,-0.00336193570526946,0.09427825522964234
-4.7175,-0.002692804505292362,0.07584702578100613
-4.71625,-0.002023673305315264,0.0594264759085802
-4.715,-0.002023673305315264,0.04937307802751048
-4.71375,-0.0006854109053610678,0.01016482629132072
-4.7125,0.002660245094522902,-0.07059747001993941
-4.71125,0.003329376294501521,-0.1010927769259015
-4.71,0.002994810694512972,-0.08266154747726528
-4.70875,0.002325679494535874,-0.06288986497781918
-4.7075,0.002325679494535722,-0.05015556099512186
-4.70625,0.001991113894547325,-0.04311818247837305
-4.705,-1.627970538396967e-05,0.01318084565564301
-4.70375,-0.002692804505291145,0.07852793188259623
-4.7025,-0.003696501305257705,0.09695916133125546
-4.70125,-0.003027370105280911,0.08221417777235318
-4.7,-0.002358238905303813,0.06445317484912193
-4.69875,-0.002023673305315416,0.05238909739183826
-4.6975,-0.001354542105338166,0.03261741489238665
-4.69625,0.001321982694570227,-0.04546397531729039
-4.695,0.003329376294501521,-0.09941721061238912
-4.69375,0.00299481069451282,-0.09036915251941249
-4.6925,0.002660245094524423,-0.06892190370646376
-4.69125,0.002325679494535874,-0.05384180688485231
-4.69,0.001991113894547477,-0.04579908857999652
-4.68875,0.0009874170945816775,-0.01396332862325759
-4.6875,-0.002023673305315264,0.06177226874750211
-4.68625,-0.00336193570526946,0.09528359501774977
-4.685,-0.003361935705269156,0.08824621650098938
-4.68375,-0.002692804505292362,0.06981498705236155
-4.6825,-0.002023673305315264,0.05540511675615506
-4.68125,-0.001689107705326867,0.04535171887508534
-4.68,0.0003182858946045794,-0.01731446125028236
-4.67875,0.002994810694512972,-0.08835847294320739
-4.6775,0.003329376294501521,-0.09740653103617426
-4.67625,0.00299481069451282,-0.07595928222320752
-4.675,0.002660245094524423,-0.05786316603728203
-4.67375,0.002325679494535874,-0.04814488141891021
-4.6725,0.00165654829455908,-0.03407012438541258
-4.67125,-0.00101997650535053,0.03797922709564959
-4.67,-0.003027370105280911,0.08925155628910519
-4.66875,-0.00336193570526946,0.09327291544153492
-4.6675,-0.002692804505292667,0.07517679925560941
-4.66625,-0.002358238905303813,0.05875624938317982
-4.665,-0.002023673305315264,0.04870285150210553
-4.66375,-0.0006854109053610678,0.0104999395540232
-4.6625,0.00232567949453633,-0.07026235675728798
-4.66125,0.003329376294501521,-0.1017630034513065
-4.66,0.002994810694512972,-0.08366688726537272
-4.65875,0.002660245094524575,-0.06389520476593559
-4.6575,0.001991113894547325,-0.05149601404593497
-4.65625,0.001991113894547325,-0.04445863552918296
-4.655,-1.627970538396967e-05,0.01184039260483311
-4.65375,-0.002692804505292818,0.07752259209452675
-4.6525,-0.003696501305258009,0.09561870828045226
-4.65125,-0.00336193570526946,0.08154395124694823
-4.65,-0.002358238905304269,0.06411806158642737
-4.64875,-0.002023673305315264,0.05205398412913029
-4.6475,-0.001354542105338166,0.03295252815508913
-4.64625,0.001321982694570227,-0.04479374879188544
-4.645,0.003329376294501369,-0.0994172106123853
-4.64375,0.002994810694512972,-0.0910393790448272
-4.6425,0.002660245094524423,-0.06992724349457118
-4.64125,0.002325679494536026,-0.05484714667296659
-4.64,0.001991113894546869,-0.04713954163078814
-4.63875,0.0009874170945816775,-0.01496866841136502
-4.6375,-0.002023673305315264,0.06043181569669221
-4.63625,-0.003361935705268852,0.09461336849232928
-4.635,-0.00336193570526946,0.08824621650099776
-4.63375,-0.002358238905303813,0.06981498705236155
-4.6325,-0.002023673305315264,0.05540511675615506
-4.63125,-0.002023673305314199,0.04535171887505211
-4.63,0.0003182858946045794,-0.01764957451298483
-4.62875,0.002994810694512972,-0.08869358620590986
-4.6275,0.003329376294501369,-0.09774164429887261
-4.62625,0.002660245094524423,-0.07662950874862071
-4.625,0.002325679494535874,-0.05920361908809193
-4.62375,0.001991113894547325,-0.04915022120701763
-4.6225,0.001656548294557559,-0.0344052376480759
-4.62125,-0.001019976505349617,0.0376441138329238
-4.62,-0.003027370105280911,0.08891644302640273
-4.61875,-0.003361935705269308,0.09327291544153293
-4.6175,-0.002692804505292362,0.0748416859928987
-4.61625,-0.002358238905303813,0.05875624938317982
-4.615,-0.001689107705326715,0.04937307802751048
-4.61375,-0.0006854109053596986,0.01117016607939143
-4.6125,0.002325679494535874,-0.06959213023186871
-4.61125,0.003329376294501521,-0.1020981167140089
-4.61,0.002994810694513124,-0.08433711379078575
-4.60875,0.002325679494535874,-0.06389520476592081
-4.6075,0.002325679494535874,-0.05116090078323249
-4.60625,0.001991113894547325,-0.04479374879188544
-4.605,-1.627970538305677e-05,0.01184039260480735
-4.60375,-0.002692804505292362,0.07718747883181604
-4.6025,-0.003696501305258009,0.09628893480585721
-4.60125,-0.003027370105280911,0.08154395124694823
-4.6,-0.002358238905303661,0.06378294832371134
-4.59875,-0.002023673305315264,0.05138375760372534
-4.5975,-0.001689107705326715,0.03228230162968418
-4.59625,0.001321982694568857,-0.04579908857995736
-4.595,0.003329376294501521,-0.1000874371377941
-4.59375,0.003329376294501521,-0.0910393790448272
-4.5925,0.002660245094524423,-0.06959213023186871
-4.59125,0.001991113894547325,-0.05484714667295623
-4.59,0.001991113894547325,-0.04713954163080277
-4.58875,0.0009874170945816775,-0.0153037816740675
-4.5875,-0.002023673305313895,0.06009670243395544
-4.58625,-0.00336193570526946,0.09427825522964234
-4.585,-0.00336193570526946,0.08757598997559281
-4.58375,-0.002692804505292362,0.06847453400155165
-4.5825,-0.002023673305315112,0.05439977696804321
-4.58125,-0.001689107705326715,0.04468149234967581
-4.58,0.0006528514945931285,-0.01764957451298483
-4.57875,0.003329376294500304,-0.08902869946857989
-4.5775,0.003329376294501217,-0.09841187082427194
-4.57625,0.002660245094524423,-0.07696462201132319
-4.575,0.002325679494535874,-0.05886850582538945
-4.57375,0.001991113894547477,-0.04881510794431973
-4.5725,0.001656548294558776,-0.03407012438540619
-4.57125,-0.001019976505349617,0.03730900057022132
-4.57,-0.00336193570526946,0.08824621650099776
-4.56875,-0.003696501305257553,0.09293780217882436
-4.5675,-0.002692804505292362,0.07517679925560118
-4.56625,-0.002023673305315264,0.05875624938317982
-4.565,-0.002023673305315264,0.04903796476481243
-4.56375,-0.0006854109053610678,0.01083505281672567
-4.5625,0.002325679494535874,-0.07059747001997613
-4.56125,0.003329376294501521,-0.1020981167140089
-4.56,0.002660245094524271,-0.08467222705347101
-4.55875,0.002325679494535874,-0.06456543129133155
-4.5575,0.001991113894547325,-0.05216624057133992
-4.55625,0.001991113894547325,-0.04512886205459112
-4.555,-1.627970538396967e-05,0.0104999395540232
-4.55375,-0.002358238905303813,0.07685236556911357
-4.5525,-0.00336193570526946,0.09561870828045226
-4.55125,-0.003027370105280759,0.08154395124694
-4.55,-0.002692804505292362,0.06344783506101449
-4.54875,-0.002358238905303813,0.05138375760372534
-4.5475,-0.001354542105338622,0.03194718836699054
-4.54625,0.00132198269457114,-0.04680442836812483
-4.545,0.003329376294501521,-0.100757663663199
-4.54375,0.002994810694512972,-0.09237983209563712
-4.5425,0.002660245094524575,-0.07059747001998604
-4.54125,0.002325679494535874,-0.05518225993566221
-4.54,0.002325679494535874,-0.04713954163080277
-4.53875,0.0009874170945816775,-0.01563889493676997
-4.5375,-0.002023673305316025,0.05976158917130265
-4.53625,-0.003696501305258009,0.09360802870423739
-4.535,-0.00336193570526946,0.08757598997559281
-4.53375,-0.002692804505292667,0.06880964726426265
-4.5325,-0.002023673305315264,0.05439977696804763
-4.53125,-0.002023673305315264,0.04434637908697334
-4.53,0.0003182858946045794,-0.01764957451298483
-4.52875,0.002994810694513124,-0.08835847294321196
-4.5275,0.003329376294501521,-0.0984118708242817
-4.52625,0.002994810694512972,-0.07729973527402567
-4.525,0.002660245094524575,-0.05920361908810016
-4.52375,0.001991113894547325,-0.04948533446972011
-4.5225,0.001656548294558776,-0.03507546417351361
-4.52125,-0.001019976505349617,0.03663877404481637
-4.52,-0.003027370105281216,0.08791110323829758
-4.51875,-0.003696501305258009,0.09293780217883243
-4.5175,-0.003027370105280911,0.0748416859928987
-4.51625,-0.002358238905304118,0.05842113612048482
-4.515,-0.002023673305314503,0.04836773823938598
-4.51375,-0.0003508453053725187,0.01083505281672567
-4.5125,0.002660245094524423,-0.07026235675727366
-4.51125,0.003663941894489614,-0.1024332299766968
-4.51,0.002994810694512972,-0.08467222705348015
-4.50875,0.002660245094524423,-0.06423031802862908
-4.5075,0.001991113894547325,-0.05183112730863745
-4.50625,0.001991113894546412,-0.04546397531726509
-4.505,-1.627970538396967e-05,0.01016482629132072
-4.50375,-0.002692804505292362,0.0761821390437086
-4.5025,-0.003696501305257553,0.09528359501774109
-4.50125,-0.003027370105280911,0.08087372472154328
-4.5,-0.002358238905303813,0.06344783506101449
-4.49875,-0.001689107705326715,0.05171887086642782
-4.4975,-0.001354542105336949,0.03295252815505362
-4.49625,0.001321982694570227,-0.04512886205458792
-4.495,0.003329376294501521,-0.0997523238750916
-4.49375,0.002994810694513124,-0.09204471883293815
-4.4925,0.002660245094524423,-0.07059747001997613
-4.49125,0.002325679494535874,-0.05585248646106716
-4.49,0.001991113894547325,-0.04780976815620773
-4.48875,0.0009874170945804604,-0.01630912146214064
-4.4875,-0.001689107705326715,0.0590913626458823
-4.48625,-0.00336193570526946,0.09360802870423739
-4.485,-0.003027370105281064,0.08757598997559556
-4.48375,-0.002358238905303661,0.06914476052695021
-4.4825,-0.002023673305315264,0.05507000349345258
-4.48125,-0.001689107705326715,0.04602194540048572
-4.48,0.0003182858946036665,-0.01630912146214658
-4.47875,0.002994810694512972,-0.08768824641780244
-4.4775,0.003329376294501521,-0.09740653103617426
-4.47625,0.002660245094524423,-0.07662950874862071
-4.475,0.002325679494535874,-0.05886850582538473
-4.47375,0.002325679494535874,-0.04847999468161268
-4.4725,0.001991113894547325,-0.03440523764810866
-4.47125,-0.0006854109053598505,0.03764411383289103
-4.47,-0.003027370105280911,0.08925155628910519
-4.46875,-0.00336193570526946,0.09394314196693987
-4.4675,-0.002692804505292362,0.07584702578100613
-4.46625,-0.002358238905303661,0.05976158917128253
-4.465,-0.002023673305315264,0.04937307802751048
-4.46375,-0.0006854109053610678,0.01251061913023806
-4.4625,0.002325679494534505,-0.0685867904437244
-4.46125,0.003329376294501521,-0.100757663663199
-4.46,0.002994810694512972,-0.08299666073996777
-4.45875,0.002660245094524423,-0.06255475171511669
-4.4575,0.002325679494535722,-0.04982044773241969
-4.45625,0.001991113894547325,-0.04345329574107553
-4.455,-1.627970538396967e-05,0.01184039260483311
-4.45375,-0.002692804505291145,0.07785770535719097
-4.4525,-0.003696501305257705,0.09628893480585066
-4.45125,-0.003027370105280911,0.08187906450965071
-4.45,-0.002358238905303813,0.06445317484912193
-4.44875,-0.002023673305315416,0.05205398412913594
-4.4475,-0.001689107705326715,0.03328764141779161
-4.44625,0.001656548294558776,-0.04445863552918296
-4.445,0.00366394189449007,-0.09941721061238912
-4.44375,0.003329376294501217,-0.09137449230752008
-4.4425,0.002660245094524423,-0.07026235675727366
-4.44125,0.002325679494535874,-0.05484714667295974
-4.44,0.001991113894547477,-0.04713954163080628
-4.43875,0.0009874170945816775,-0.01630912146217493
-4.4375,-0.002023673305315264,0.05942647590858478
-4.43625,-0.00336193570526946,0.09360802870423739
-4.435,-0.003361935705269004,0.08757598997558412
-4.43375,-0.002358238905303813,0.06847453400155165
-4.4325,-0.002023673305315264,0.05439977696804763
-4.43125,-0.001689107705326867,0.04468149234968023
-4.43,0.0006528514945931285,-0.01764957451298483
-4.42875,0.002994810694512972,-0.08936381273131483
-4.4275,0.003329376294501521,-0.0984118708242817
-4.42625,0.002994810694512668,-0.07696462201131511
-4.425,0.002325679494535874,-0.05920361908809193
-4.42375,0.002325679494535874,-0.04915022120701763
-4.4225,0.00165654829455908,-0.03507546417352002
-4.42125,-0.0006854109053621328,0.03663877404483984
-4.42,-0.003027370105280911,0.08824621650099776
-4.41875,-0.00336193570526946,0.09293780217883243
-4.4175,-0.002692804505292667,0.07551191251831157
-4.41625,-0.002023673305315264,0.05942647590858478
-4.415,-0.001689107705326715,0.04937307802751048
-4.41375,-0.0006854109053610678,0.01150527934213063
-4.4125,0.002325679494536482,-0.06925701696918116
-4.41125,0.00366394189449007,-0.1020981167140089
-4.41,0.002994810694512972,-0.08433711379077767
-4.40875,0.002660245094524575,-0.0638952047659359
-4.4075,0.002325679494535874,-0.05116090078323249
-4.40625,0.002325679494535874,-0.04412352226648048
-4.405,-1.627970538396967e-05,0.01117016607942815
-4.40375,-0.002358238905304269,0.07752259209452736
-4.4025,-0.00336193570526946,0.09695916133126216
-4.40125,-0.003027370105280911,0.08288440429775815
-4.4,-0.002358238905304118,0.06512340137453496
-4.39875,-0.002023673305315264,0.05272421065453525
-4.3975,-0.001354542105338166,0.03362275468049408
-4.39625,0.001321982694570227,-0.04412352226648048
-4.395,0.003329376294501521,-0.0987469840869805
-4.39375,0.003329376294501521,-0.09070426578212473
-4.3925,0.002994810694512972,-0.06925701696916622
-4.39125,0.002325679494536178,-0.05384180688485932
-4.39,0.002325679494535265,-0.0457990885799787
-4.38875,0.0009874170945816775,-0.01463355514866255
-4.3875,-0.001689107705326715,0.06076692895939469
-4.38625,-0.0033619357052687,0.09528359501773408
-4.385,-0.00336193570526946,0.08958666955180768
-4.38375,-0.002692804505292362,0.07082032684046899
-4.3825,-0.002023673305315264,0.05674556980696497
-4.38125,-0.001689107705325802,0.04702728518856495
-4.38,0.0003182858946045794,-0.01496866841136502
-4.37875,0.002994810694512972,-0.08668290662969501
-4.3775,0.003329376294501369,-0.0964011912480624
-4.37625,0.002994810694512972,-0.0752890556978108
-4.375,0.002325679494535874,-0.05719293951187707
-4.37375,0.002325679494535874,-0.0468044283681003
-4.3725,0.001991113894546107,-0.03272967133456367
-4.37125,-0.0006854109053610678,0.03898456688373371
-4.37,-0.003027370105280911,0.09025689607721263
-4.36875,-0.003361935705269308,0.09561870828044981
-4.3675,-0.002692804505292362,0.07752259209451852
-4.36625,-0.002023673305315264,0.06143715548479964
-4.365,-0.002023673305315264,0.05104864434102287
-4.36375,-0.0003508453053711494,0.01351595891830846
-4.3625,0.002660245094524423,-0.06791656391835632
-4.36125,0.00366394189449007,-0.0997523238750916
-4.36,0.003329376294501673,-0.08199132095186841
-4.35875,0.002660245094524271,-0.06188452518970595
-4.3575,0.002325679494535874,-0.04915022120701763
-4.35625,0.001991113894547325,-0.04278306921567058
-4.355,0.0003182858946053401,0.01217550586751059
-4.35375,-0.002358238905303813,0.07819281861992347
-4.3525,-0.00336193570526946,0.09762938785666711
-4.35125,-0.003027370105280911,0.0835546308231631
-4.35,-0.002023673305315264,0.0657936278999262
-4.34875,-0.002023673305315264,0.0533944371799402
-4.3475,-0.001354542105338166,0.03496320773130399
-4.34625,0.001656548294557407,-0.04244795595293289
-4.345,0.00366394189449007,-0.09740653103617426
-4.34375,0.003329376294501521,-0.0896989259940173
-4.3425,0.002660245094524423,-0.06858679044376127
-4.34125,0.002325679494535874,-0.05384180688484865
-4.34,0.002325679494535874,-0.04579908857999287
-4.33875,0.001321982694570227,-0.01496866841136502
-4.3375,-0.001689107705325346,0.06043181569665792
-4.33625,-0.00336193570526946,0.09461336849234482
-4.335,-0.003027370105280911,0.08891644302640273
-4.33375,-0.002358238905303813,0.07015010031506402
-4.3325,-0.002023673305315112,0.05574023001885312
-4.33125,-0.001689107705326715,0.04602194540048572
-4.33,0.0003182858946045794,-0.01563889493676997
-4.32875,0.002994810694511755,-0.08802335968047201
-4.3275,0.003329376294501369,-0.09774164429886698
-4.32625,0.002994810694512972,-0.07629439548591824
-4.325,0.002660245094524423,-0.05853339256268698
-4.32375,0.002325679494536026,-0.04847999468161725
-4.3225,0.001656548294558776,-0.03474035091081114
-4.32125,-0.0006854109053610678,0.03697388730751885
-4.32,-0.003027370105280911,0.08858132976370024
-4.31875,-0.003361935705269156,0.09360802870422916
-4.3175,-0.002692804505292362,0.07551191251830365
-4.31625,-0.002023673305315264,0.0590913626458823
-4.315,-0.001689107705326867,0.04903796476481258
-4.31375,-0.0006854109053610678,0.01150527934213063
-4.3125,0.002660245094524423,-0.06959213023186871
-4.31125,0.00366394189449007,-0.1024332299767114
-4.31,0.003329376294501217,-0.08433711379076853
-4.30875,0.002660245094524423,-0.06423031802862908
-4.3075,0.002325679494535874,-0.05116090078323249
-4.30625,0.002325679494535874,-0.044458635529186
-4.305,0.0003182858946045794,0.0104999395540232
-4.30375,-0.002358238905303813,0.07685236556911357
-4.3025,-0.00336193570526946,0.09662404806855968
-4.30125,-0.003027370105280607,0.0822141777723451
-4.3,-0.002358238905303813,0.06445317484912193
-4.29875,-0.002023673305315264,0.05238909739183277
-4.2975,-0.00135454210533847,0.03362275468050262
-4.29625,0.00132198269457114,-0.04412352226650548
-4.295,0.003329376294501521,-0.09908209734968665
-4.29375,0.003329376294501521,-0.09137449230752968
-4.2925,0.002994810694513124,-0.06959213023187862
-4.29125,0.002325679494535874,-0.05451203341025726
-4.29,0.002325679494535874,-0.04613420184269534
-4.28875,0.0009874170945816775,-0.01597400819947245
-4.2875,-0.001689107705327476,0.05909136264589784
-4.28625,-0.00336193570526946,0.09327291544153492
-4.285,-0.003027370105280911,0.08724087671289034
-4.28375,-0.002692804505292514,0.06847453400156019
-4.2825,-0.002023673305315264,0.05406466370534516
-4.28125,-0.001689107705326715,0.04434637908697334
-4.28,0.0003182858946045794,-0.01731446125028236
-4.27875,0.002994810694513124,-0.08835847294321166
-4.2775,0.003329376294501521,-0.09774164429887673
-4.27625,0.002994810694512972,-0.07662950874862071
-4.275,0.002660245094524575,-0.05819827929999288
-4.27375,0.002325679494535874,-0.04780976815620773
-4.2725,0.001656548294558776,-0.03440523764810866
-4.27125,-0.001019976505349617,0.03697388730751885
-4.27,-0.003027370105281216,0.08891644302640532
-4.26875,-0.003696501305258009,0.09461336849234482
-4.2675,-0.003027370105280911,0.0761821390437086
-4.26625,-0.002023673305315721,0.06009670243399705
-4.265,-0.002023673305314808,0.05004330455289867
-4.26375,-0.001019976505349617,0.01318084565564301
-4.2625,0.002325679494535874,-0.06758145065565384
-4.26125,0.003663941894489461,-0.1007576636631839
-4.26,0.002994810694512972,-0.08333177400267025
-4.25875,0.002660245094524423,-0.06322497824052165
-4.2575,0.002325679494535874,-0.05049067425782754
-4.25625,0.001991113894546412,-0.04378840900375332
-4.255,-1.627970538396967e-05,0.0104999395540232
-4.25375,-0.002358238905303813,0.07685236556911357
-4.2525,-0.003696501305257401,0.09662404806855068
-4.25125,-0.003027370105280911,0.08254929103505566
-4.25,-0.002358238905303813,0.06445317484912193
-4.24875,-0.002023673305315264,0.05205398412913029
-4.2475,-0.001354542105336949,0.0332876414177561
-4.24625,0.001321982694570227,-0.04479374879188544
-4.245,0.003329376294501521,-0.1000874371377941
-4.24375,0.002994810694513124,-0.09137449230753364
-4.2425,0.002660245094524423,-0.06992724349457118
-4.24125,0.002325679494535874,-0.05451203341025726
-4.24,0.002325679494535874,-0.04646931510539782
-4.23875,0.0009874170945804604,-0.01630912146214033
-4.2375,-0.001689107705326715,0.05976158917128726
-4.23625,-0.00336193570526946,0.09461336849234482
-4.235,-0.00336193570526946,0.08858132976370299
-4.23375,-0.002692804505292058,0.069814987052355
-4.2325,-0.002023673305315264,0.05540511675615506
-4.23125,-0.001689107705326715,0.04568683213778324
-4.23,0.0006528514945920634,-0.01496866841133744
-4.22875,0.002994810694512972,-0.08701801989239749
-4.2275,0.00366394189449007,-0.09707141777347178
-4.22625,0.002994810694512972,-0.07629439548591824
-4.225,0.002660245094524118,-0.05819827929997978
-4.22375,0.001991113894547325,-0.04780976815620773
-4.2225,0.001656548294558776,-0.03407012438540619
-4.22125,-0.0010199765053484,0.03730900057018886
-4.22,-0.00336193570526946,0.08925155628910519
-4.21875,-0.003696501305258009,0.09427825522964234
-4.2175,-0.003027370105280911,0.07685236556911357
-4.21625,-0.002023673305315264,0.06076692895939027
-4.215,-0.002023673305315264,0.05104864434102287
-4.21375,-0.0006854109053610678,0.01418618544375044
-4.2125,0.002325679494534505,-0.06758145065561666
-4.21125,0.003329376294501521,-0.1004225504004966
-4.21,0.002994810694512972,-0.08266154747726528
-4.20875,0.002660245094524423,-0.06255475171511669
-4.2075,0.002325679494535722,-0.04982044773241954
-4.20625,0.001991113894547325,-0.04311818247837305
-4.205,-1.627970538396967e-05,0.01117016607942815
-4.20375,-0.002692804505291145,0.07752259209448835
-4.2025,-0.003361935705269308,0.09762938785666071
-4.20125,-0.003027370105280911,0.0835546308231631
-4.2,-0.002358238905303813,0.06545851463722936
-4.19875,-0.002023673305315416,0.05305932391724336
-4.1975,-0.001689107705326715,0.03529832099400647
-4.19625,0.001321982694570227,-0.0424479559529681
-4.195,0.003329376294501521,-0.09774164429887673
-4.19375,0.00299481069451282,-0.08969892599400754
-4.1925,0.002660245094524423,-0.0682516771810588
-4.19125,0.002325679494535874,-0.05317158035944735
-4.19,0.001991113894547477,-0.0454639753172939
-4.18875,0.0009874170945816775,-0.0153037816740675
-4.1875,-0.001689107705326715,0.06076692895939469
-4.18625,-0.003696501305258009,0.0949484817550473
-4.185,-0.003361935705269156,0.08925155628909666
-4.18375,-0.002692804505292362,0.07048521357776651
-4.1825,-0.002358238905303813,0.05574023001885754
-4.18125,-0.002023673305315416,0.04635705866319246
-4.18,0.0003182858946045794,-0.01463355514866255
-4.17875,0.002994810694512972,-0.08701801989239749
-4.1775,0.003329376294501521,-0.09740653103617426
-4.17625,0.00299481069451282,-0.07595928222320752
-4.175,0.002660245094524423,-0.05786316603728203
-4.17375,0.002325679494535874,-0.04780976815620773
-4.1725,0.00165654829455908,-0.03474035091081708
-4.17125,-0.001019976505350682,0.03596854751943504
-4.17,-0.00336193570526946,0.08791110323829529
-4.16875,-0.003696501305258009,0.09360802870423739
-4.1675,-0.002692804505292819,0.07584702578101421
-4.16625,-0.002358238905303813,0.05942647590858478
-4.165,-0.002023673305315264,0.04970819129021296
-4.16375,-0.0006854109053610678,0.01251061913023806
-4.1625,0.002325679494536482,-0.06858679044377636
-4.16125,0.00366394189449007,-0.1017630034513065
-4.16,0.002994810694512972,-0.0840020005280752
-4.15875,0.002325679494536178,-0.06389520476593574
-4.1575,0.001991113894547325,-0.05116090078323249
-4.15625,0.001991113894547325,-0.04445863552918296
-4.155,-1.627970538396967e-05,0.009159486503213292
-4.15375,-0.002358238905304422,0.07584702578101528
-4.1525,-0.003696501305258009,0.09595382154315472
-4.15125,-0.003027370105280911,0.08221417777235318
-4.15,-0.002358238905304118,0.06445317484913
-4.14875,-0.002023673305315264,0.05238909739183277
-4.1475,-0.001689107705326715,0.03395786794319656
-4.14625,0.0009874170945816775,-0.04345329574107553
-4.145,0.002994810694512972,-0.09874698408698081
-4.14375,0.002994810694512972,-0.09137449230752968
-4.1425,0.002660245094524423,-0.07026235675727366
-4.14125,0.002325679494536026,-0.05451203341026442
-4.14,0.001991113894546869,-0.04680442836808688
-4.13875,0.0009874170945816775,-0.01731446125028236
-4.1375,-0.002023673305315264,0.05842113612047735
-4.13625,-0.003361935705268852,0.09327291544151907
-4.135,-0.003027370105280911,0.08824621650099776
-4.13375,-0.002692804505292362,0.06947987378965907
-4.1325,-0.002358238905303813,0.05507000349345258
-4.13125,-0.002023673305314199,0.04501660561235071
-4.13,0.0003182858946045794,-0.01563889493676997
-4.12875,0.002660245094524423,-0.08768824641780244
-4.1275,0.003329376294501217,-0.0980767575615745
-4.12625,0.002660245094524423,-0.07729973527402567
-4.125,0.002325679494535874,-0.05987384561349688
-4.12375,0.001991113894547325,-0.04948533446972011
-4.1225,0.001991113894546107,-0.03574569069888642
-4.12125,-0.0006854109053610678,0.03496320773130399
-4.12,-0.003027370105280911,0.08657065018748539
-4.11875,-0.003361935705269308,0.09260268891612722
-4.1175,-0.002692804505292362,0.07450657273019623
-4.11625,-0.002358238905303813,0.05808602285777487
-4.115,-0.002023673305315264,0.04803262497670058
-4.11375,-0.0006854109053596986,0.01184039260479653
-4.1125,0.002325679494535874,-0.06858679044376127
-4.11125,0.003329376294501521,-0.1020981167140089
-4.11,0.002994810694513124,-0.08500734031619039
-4.10875,0.002660245094524271,-0.06490054455402824
-4.1075,0.002325679494535874,-0.05216624057133992
-4.10625,0.001991113894547325,-0.04579908857999287
-4.105,-1.627970538305677e-05,0.006143467138867383
-4.10375,-0.002358238905303813,0.07216077989127889
-4.1025,-0.00336193570526946,0.09226757565342748
-4.10125,-0.002692804505292362,0.07919815840803089
-4.1,-0.002358238905303661,0.06177226874749663
-4.09875,-0.002023673305315264,0.04970819129021296
-4.0975,-0.001354542105338166,0.03328764141779161
-4.09625,0.001321982694569009,-0.03943193658861274
-4.095,0.003329376294501521,-0.09305005862104207
-4.09375,0.002994810694512972,-0.08567756684158757
-4.0925,0.002660245094524423,-0.06523565781673651
-4.09125,0.001991113894547325,-0.05082578752052636
-4.09,0.001991113894547325,-0.04278306921567058
-4.08875,0.0009874170945816775,-0.01597400819947245
-4.0875,-0.001354542105337101,0.05372955044261099
-4.08625,-0.003027370105280911,0.08657065018748539
-4.085,-0.003027370105280911,0.08087372472154328
-4.08375,-0.002358238905303813,0.06311272179831202
-4.0825,-0.001689107705326563,0.0490379647648042
-4.08125,-0.001354542105338166,0.04066013319724609
-4.08,0.0003182858946045794,-0.01396332862325759
-4.07875,0.002660245094523358,-0.0819913209518294
-4.0775,0.00299481069451282,-0.09237983209562782
-4.07625,0.002660245094524423,-0.07193792307078604
-4.075,0.002325679494535874,-0.05384180688485231
-4.07375,0.001991113894547477,-0.04445863552918723
-4.0725,0.001321982694570227,-0.03306478459729876
-4.07125,-0.001019976505349617,0.03161207510427922
-4.07,-0.002692804505292362,0.08120883798424576
-4.06875,-0.003027370105280607,0.08657065018747777
-4.0675,-0.002358238905303813,0.06981498705236155
-4.06625,-0.002023673305315264,0.05372955044264268
-4.065,-0.001689107705326867,0.0443463790869776
-4.06375,-0.0006854109053610678,0.01217550586753558
-4.0625,0.001991113894547325,-0.06322497824052165
-4.06125,0.003329376294501521,-0.09539585145995941
-4.06,0.002994810694512668,-0.07796996179942163
-4.05875,0.002325679494535874,-0.0581982792999845
-4.0575,0.001991113894547325,-0.04613420184269534
-4.05625,0.001656548294558928,-0.04043727637675583
-4.055,-1.627970538396967e-05,0.008154146715105863
-4.05375,-0.002358238905303813,0.07048521357776651
-4.0525,-0.00336193570526946,0.08891644302640273
-4.05125,-0.003027370105280607,0.07618213904370083
-4.05,-0.002358238905303813,0.0590913626458823
-4.04875,-0.001689107705326715,0.04736239845129563
-4.0475,-0.001354542105338318,0.03161207510428638
-4.04625,0.00132198269457114,-0.03909682332596726
-4.045,0.003329376294501521,-0.09170960557023215
-4.04375,0.002994810694512972,-0.08467222705348015
-4.0425,0.002325679494536178,-0.06423031802863838
-4.04125,0.001991113894547325,-0.04948533446972011
-4.04,0.001991113894547325,-0.04211284269026563
-4.03875,0.0009874170945816775,-0.0153037816740675
-4.0375,-0.001689107705327476,0.05439977696806272
-4.03625,-0.00336193570526946,0.08757598997559281
-4.035,-0.003027370105280911,0.08221417777235318
-4.03375,-0.002358238905304118,0.06445317484913
-4.0325,-0.001689107705326715,0.05037841781561792
-4.03125,-0.001689107705326715,0.04166547298535352
-4.03,0.0003182858946045794,-0.01295798883515016
-4.02875,0.002994810694512972,-0.08065086790105545
-4.0275,0.002994810694512972,-0.09170960557023215
-4.02625,0.002660245094524423,-0.07160280980808356
-4.025,0.002325679494536026,-0.05484714667296735
-4.02375,0.001991113894547325,-0.04512886205458792
-4.0225,0.001656548294558776,-0.03373501112270371
-4.02125,-0.0006854109053610678,0.02993650879076684
-4.02,-0.002692804505292514,0.07953327167073582
-4.01875,-0.003027370105280911,0.084895083873973
-4.0175,-0.002358238905303813,0.06813942073884917
-4.01625,-0.002023673305315416,0.05205398412913761
-4.015,-0.00135454210533771,0.04267081277344632
-4.01375,-0.0003508453053725187,0.0104999395540232
-4.0125,0.002325679494535874,-0.06490054455403403
-4.01125,0.003329376294501064,-0.09707141777345715
-4.01,0.002994810694512972,-0.08065086790105043
-4.00875,0.002325679494535874,-0.06154941192700927
-4.0075,0.001991113894547325,-0.04948533446972011
-4.00625,0.001991113894546564,-0.04311818247835096
-4.005,0.0003182858946045794,0.00547324061348605
-4.00375,-0.002023673305315264,0.06813942073884917
-4.0025,-0.003027370105280455,0.08757598997558397
-4.00125,-0.002692804505292362,0.0748416859928987
-4,-0.002023673305315264,0.0577509095950724
-3.99875,-0.001689107705326715,0.04635705866318819
-3.9975,-0.001019976505349617,0.03161207510427922
-3.99625,0.001321982694570227,-0.03943193658864581
-3.995,0.003329376294501521,-0.09372028514644702
-3.99375,0.002994810694512972,-0.08802335968050491
-3.9925,0.002660245094524423,-0.06758145065565384
-3.99125,0.002325679494535874,-0.05216624057133992
-3.99,0.002325679494535874,-0.04378840900377801
-3.98875,0.001321982694570227,-0.01764957451298483
-3.9875,-0.001354542105338166,0.05406466370534516
-3.98625,-0.003027370105280911,0.08791110323829529
-3.985,-0.003027370105280911,0.08321951756046062
-3.98375,-0.002358238905303813,0.06579362789993183
-3.9825,-0.001689107705326715,0.05205398412913029
-3.98125,-0.001689107705326715,0.0433410392988659
-3.98,0.0003182858946045794,-0.01195264904704273
-3.97875,0.002994810694512972,-0.08132109442645538
-3.9775,0.003329376294501521,-0.09271494535833959
-3.97625,0.002994810694512972,-0.07294326285889347
-3.975,0.002325679494535874,-0.05518225993566221
-3.97375,0.001991113894547325,-0.04512886205458792
-3.9725,0.001656548294558776,-0.03306478459729876
-3.97125,-0.0006854109053610678,0.03295252815508913
-3.97,-0.002692804505292362,0.08422485734856805
-3.96875,-0.00336193570526946,0.0905920093399151
-3.9675,-0.002692804505292362,0.0735012329420888
-3.96625,-0.002023673305315264,0.05741579633236992
-3.965,-0.001689107705326715,0.04736239845129563
-3.96375,-0.0006854109053610678,0.01351595891834549
-3.9625,0.002325679494535874,-0.06456543129133155
-3.96125,0.003329376294501521,-0.09740653103617426
-3.96,0.002994810694512972,-0.08098598116375291
-3.95875,0.002660245094524423,-0.06121429866430679
-3.9575,0.001991113894547325,-0.04881510794431516
-3.95625,0.001991113894547325,-0.04278306921567058
-3.955,0.0003182858946045794,0.006813693664295956
-3.95375,-0.002358238905303813,0.07149055336587394
-3.9525,-0.00336193570526946,0.09159734912802253
-3.95125,-0.003027370105280911,0.07886304514532842
-3.95,-0.002023673305315264,0.06110204222209716
-3.94875,-0.001689107705326715,0.04870285150210553
-3.9475,-0.001354542105338166,0.03261741489238665
-3.94625,0.001321982694570227,-0.04110750290215819
-3.945,0.003329376294501521,-0.09673630451076931
-3.94375,0.003329376294501521,-0.09070426578212473
-3.9425,0.002994810694512972,-0.06992724349457118
-3.94125,0.002660245094524423,-0.05484714667295974
-3.94,0.002325679494535874,-0.04646931510539782
-3.93875,0.001321982694570227,-0.01899002756379474
-3.9375,-0.001689107705326715,0.05473489023075011
-3.93625,-0.00336193570526946,0.09025689607721263
-3.935,-0.003027370105280911,0.08556531039937795
-3.93375,-0.002358238905303813,0.06679896768803927
-3.9325,-0.002023673305315264,0.05238909739183277
-3.93125,-0.001689107705326715,0.04300592603616343
-3.93,0.0003182858946045794,-0.01429844188596007
-3.92875,0.002994810694512972,-0.08567756684158757
-3.9275,0.003329376294501521,-0.09707141777347178
-3.92625,0.002994810694512972,-0.07629439548591824
-3.925,0.002325679494535874,-0.0581982792999845
-3.92375,0.002325679494535874,-0.04780976815620773
-3.9225,0.001656548294558776,-0.03541057743621609
-3.92125,-0.0006854109053610678,0.03362275468049408
-3.92,-0.002692804505292362,0.08657065018748539
-3.91875,-0.00336193570526946,0.09360802870423739
-3.9175,-0.002692804505292362,0.07685236556911357
-3.91625,-0.002023673305315264,0.06043181569669221
-3.915,-0.001689107705326715,0.05037841781561792
-3.91375,-0.0006854109053610678,0.0161968650199653
-3.9125,0.002325679494535874,-0.06322497824052165
-3.91125,0.003329376294501521,-0.0984118708242817
-3.91,0.002994810694512972,-0.08165620768915786
-3.90875,0.002660245094524423,-0.06154941192700927
-3.9075,0.002325679494535874,-0.04915022120701763
-3.90625,0.001991113894547325,-0.04211284269026563
-3.905,0.0003182858946045794,0.008824373240510816
-3.90375,-0.002358238905303813,0.0761821390437086
-3.9025,-0.003696501305258009,0.09729427459396463
-3.90125,-0.003027370105280911,0.08455997061127052
-3.9,-0.002358238905303813,0.06713408095074173
-3.89875,-0.002023673305315264,0.05439977696804763
-3.8975,-0.001354542105338166,0.03697388730751885
-3.89625,0.001321982694570227,-0.03876171006324086
-3.895,0.003329376294501521,-0.09539585145995941
-3.89375,0.003329376294501521,-0.08902869946861235
-3.8925,0.002994810694512972,-0.0682516771810588
-3.89125,0.002325679494535874,-0.05283646709674487
-3.89,0.001991113894547325,-0.04479374879188544
-3.88875,0.001321982694570227,-0.01731446125028236
-3.8875,-0.001689107705326715,0.0577509095950724
-3.88625,-0.00336193570526946,0.09427825522964234
-3.885,-0.00336193570526946,0.09025689607721263
-3.88375,-0.002692804505292362,0.07182566662857641
-3.8825,-0.002023673305315264,0.05674556980696497
-3.88125,-0.001689107705326715,0.04702728518859314
-3.88,0.0003182858946045794,-0.01128242252163778
-3.87875,0.002994810694512972,-0.0840020005280752
-3.8775,0.003329376294501521,-0.09673630451076931
-3.87625,0.002994810694512972,-0.07729973527402567
-3.875,0.002660245094524423,-0.05920361908809193
-3.87375,0.002325679494535874,-0.04881510794431516
-3.8725,0.001656548294558776,-0.03641591722432352
-3.87125,-0.0006854109053610678,0.03295252815508913
-3.87,-0.002692804505292362,0.08590042366208044
-3.86875,-0.00336193570526946,0.09327291544153492
-3.8675,-0.002692804505292362,0.0761821390437086
-3.86625,-0.002023673305315264,0.05976158917128726
-3.865,-0.002023673305315264,0.04937307802751048
-3.86375,-0.0006854109053610678,0.01452129870645292
-3.8625,0.002325679494535874,-0.06590588434214147
-3.86125,0.00366394189449007,-0.1010927769259015
-3.86,0.003329376294501521,-0.08500734031618262
-3.85875,0.002660245094524423,-0.06490054455403403
-3.8575,0.002325679494535874,-0.05216624057133992
-3.85625,0.002325679494535874,-0.04546397531729039
-3.855,0.0003182858946045794,0.006143467138891003
-3.85375,-0.002358238905303813,0.07316611967938631
-3.8525,-0.00336193570526946,0.0949484817550473
-3.85125,-0.002692804505292362,0.08288440429775815
-3.85,-0.002358238905303813,0.06478828811182441
-3.84875,-0.001689107705326715,0.05238909739183277
-3.8475,-0.001354542105338166,0.03529832099400647
-3.84625,0.001321982694570227,-0.04043727637675324
-3.845,0.00366394189449007,-0.09707141777347178
-3.84375,0.003329376294501521,-0.0910393790448272
-3.8425,0.002994810694512972,-0.07026235675727366
-3.84125,0.002325679494535874,-0.05484714667295974
-3.84,0.002325679494535874,-0.04613420184269534
-3.83875,0.001321982694570227,-0.01798468777568731
-3.8375,-0.001689107705326715,0.05674556980696497
-3.83625,-0.00336193570526946,0.09327291544153492
-3.835,-0.00336193570526946,0.08958666955180768
-3.83375,-0.002358238905303813,0.07149055336587394
-3.8325,-0.002023673305315264,0.05641045654426249
-3.83125,-0.001689107705326715,0.04702728518859314
-3.83,0.0003182858946045794,-0.0109473092589353
-3.82875,0.002994810694512972,-0.08366688726537272
-3.8275,0.003329376294501521,-0.09606607798536436
-3.82625,0.002994810694512972,-0.07595928222321575
-3.825,0.002660245094524423,-0.05752805277457955
-3.82375,0.001991113894547325,-0.04713954163080277
-3.8225,0.001656548294558776,-0.03474035091081114
-3.82125,-0.0006854109053610678,0.03362275468049408
-3.82,-0.003027370105280911,0.08690576345018786
-3.81875,-0.00336193570526946,0.09461336849234482
-3.8175,-0.002692804505292362,0.07752259209451852
-3.81625,-0.002023673305315264,0.06143715548479964
-3.815,-0.001689107705326715,0.05071353107832039
-3.81375,-0.0006854109053610678,0.01753731807077521
-3.8125,0.002325679494535874,-0.06288986497781918
-3.81125,0.00366394189449007,-0.09807675756157921
-3.81,0.002994810694512972,-0.08199132095186033
-3.80875,0.002325679494535874,-0.06188452518971174
-3.8075,0.001991113894547325,-0.04948533446972011
-3.80625,0.001991113894547325,-0.04278306921567058
-3.805,0.0003182858946045794,0.007483920189700909
-3.80375,-0.002358238905303813,0.0748416859928987
-3.8025,-0.00336193570526946,0.09595382154315472
-3.80125,-0.003027370105280911,0.08321951756046062
-3.8,-0.002358238905303813,0.06579362789993183
-3.79875,-0.001689107705326715,0.0533944371799402
-3.7975,-0.001354542105338166,0.0363036607821139
-3.79625,0.001321982694570227,-0.0380914835378359
-3.795,0.003329376294501521,-0.09506073819725692
-3.79375,0.003329376294501521,-0.0896989259940173
-3.7925,0.002660245094524423,-0.06892190370646376
-3.79125,0.002325679494535874,-0.05384180688485231
-3.79,0.001991113894547325,-0.04512886205458792
-3.78875,0.001321982694570227,-0.01831980103838979
-3.7875,-0.001689107705326715,0.05607534328156001
-3.78625,-0.00336193570526946,0.09226757565342748
-3.785,-0.00336193570526946,0.08858132976370024
-3.78375,-0.002358238905303813,0.07115544010317146
-3.7825,-0.002023673305315264,0.05607534328156001
-3.78125,-0.001689107705326715,0.04669217192589067
-3.78,-1.627970538396967e-05,-0.01027708273353035
-3.77875,0.002660245094524423,-0.08299666073996777
-3.7775,0.003329376294501521,-0.09573096472266188
-3.77625,0.002660245094524423,-0.07595928222321575
-3.775,0.002660245094524423,-0.05786316603728203
-3.77375,0.001991113894547325,-0.04747465489350525
-3.7725,0.001656548294558776,-0.03541057743621609
-3.77125,-0.0006854109053610678,0.03261741489238665
-3.77,-0.002692804505292362,0.0862355369247829
-3.76875,-0.00336193570526946,0.09394314196693987
-3.7675,-0.002692804505292362,0.07685236556911357
-3.76625,-0.002358238905303813,0.06009670243398973
-3.765,-0.001689107705326715,0.05004330455291543
-3.76375,-0.0006854109053610678,0.01653197828266778
-3.7625,0.002325679494535874,-0.0638952047659266
-3.76125,0.002994810694512972,-0.09908209734968665
-3.76,0.002994810694512972,-0.08266154747726528
-3.75875,0.002660245094524423,-0.06288986497781918
-3.7575,0.002325679494535874,-0.04982044773242258
-3.75625,0.001991113894547325,-0.04311818247837305
-3.755,-1.627970538396967e-05,0.006813693664295956
-3.75375,-0.002358238905303813,0.07383634620479128
-3.7525,-0.003696501305258009,0.09595382154315472
-3.75125,-0.003027370105280911,0.08388974408586557
-3.75,-0.002358238905303813,0.06612874116263431
-3.74875,-0.002023673305315264,0.0533944371799402
-3.7475,-0.001354542105338166,0.03596854751941142
-3.74625,0.001321982694570227,-0.03909682332594334
-3.745,0.00366394189449007,-0.09573096472266188
-3.74375,0.003329376294501521,-0.08902869946861235
-3.7425,0.002660245094524423,-0.0682516771810588
-3.74125,0.002325679494535874,-0.05317158035944735
-3.74,0.001991113894547325,-0.04479374879188544
-3.73875,0.001321982694570227,-0.01764957451298483
-3.7375,-0.001689107705326715,0.05708068306966745
-3.73625,-0.00336193570526946,0.09293780217883243
-3.735,-0.00336193570526946,0.08958666955180768
-3.73375,-0.002358238905303813,0.07216077989127889
-3.7325,-0.002023673305315264,0.05741579633236992
-3.73125,-0.001689107705326715,0.04803262497670058
-3.73,0.0003182858946045794,-0.008936629682720442
-3.72875,0.002660245094524423,-0.08132109442645538
-3.7275,0.003329376294501521,-0.09539585145995941
-3.72625,0.002994810694512972,-0.07495394243510833
-3.725,0.002325679494535874,-0.05752805277457955
-3.72375,0.001991113894547325,-0.0468044283681003
-3.7225,0.001656548294558776,-0.03440523764810866
-3.72125,-0.001019976505349617,0.03395786794319656
-3.72,-0.003027370105280911,0.08724087671289034
-3.71875,-0.00336193570526946,0.09528359501774977
-3.7175,-0.002692804505292362,0.07852793188262594
-3.71625,-0.002358238905303813,0.06210738201020459
-3.715,-0.002023673305315264,0.05138375760372534
-3.71375,-0.001019976505349617,0.01820754459618016
-3.7125,0.001991113894547325,-0.06188452518971174
-3.71125,0.003329376294501521,-0.09807675756157921
-3.71,0.002994810694512972,-0.08232643421456282
-3.70875,0.002325679494535874,-0.06255475171511669
-3.7075,0.002325679494535874,-0.04948533446972011
-3.70625,0.001991113894547325,-0.0424479559529681
-3.705,0.0003182858946045794,0.007819033452403385
-3.70375,-0.002358238905303813,0.07517679925560118
-3.7025,-0.00336193570526946,0.09695916133126216
-3.70125,-0.003027370105280911,0.08422485734856805
-3.7,-0.002692804505292362,0.06646385442533678
-3.69875,-0.002358238905303813,0.05372955044264268
-3.6975,-0.001689107705326715,0.03730900057022132
-3.69625,0.001321982694570227,-0.03708614374972848
-3.695,0.002994810694512972,-0.09506073819725692
-3.69375,0.002994810694512972,-0.09003403925671978
-3.6925,0.002660245094524423,-0.06959213023186871
-3.69125,0.002325679494535874,-0.05417692014755478
-3.69,0.001991113894547325,-0.04579908857999287
-3.68875,0.0009874170945816775,-0.01865491430109226
-3.6875,-0.001689107705326715,0.05641045654426249
-3.68625,-0.003696501305258009,0.09327291544153492
-3.685,-0.00336193570526946,0.08958666955180768
-3.68375,-0.002692804505292362,0.07082032684046899
-3.6825,-0.002023673305315264,0.05607534328156001
-3.68125,-0.002023673305315264,0.04635705866318819
-3.68,-1.627970538396967e-05,-0.0109473092589353
-3.67875,0.002660245094524423,-0.08366688726537272
-3.6775,0.003329376294501521,-0.09707141777347178
-3.67625,0.002994810694512972,-0.07696462201132319
-3.675,0.002325679494535874,-0.05920361908809193
-3.67375,0.001991113894547325,-0.04881510794431516
-3.6725,0.001656548294558776,-0.03708614374972848
-3.67125,-0.001019976505349617,0.03094184857887427
-3.67,-0.003027370105280911,0.08523019713667547
-3.66875,-0.00336193570526946,0.09260268891612997
-3.6675,-0.002692804505292362,0.07517679925560118
-3.66625,-0.002358238905303813,0.05842113612047735
-3.665,-0.002023673305315264,0.04836773823940305
-3.66375,-0.0006854109053610678,0.01485641196915539
-3.6625,0.002325679494535874,-0.06490054455403403
-3.66125,0.003329376294501521,-0.100757663663199
-3.66,0.002994810694512972,-0.08467222705348015
-3.65875,0.002660245094524423,-0.06456543129133155
-3.6575,0.001991113894547325,-0.05216624057133992
-3.65625,0.001991113894547325,-0.04579908857999287
-3.655,0.0003182858946045794,0.00346256103727119
-3.65375,-0.002358238905303813,0.07082032684046899
-3.6525,-0.00336193570526946,0.09260268891612997
-3.65125,-0.003027370105280911,0.08020349819613833
-3.65,-0.002358238905303813,0.06277760853560954
-3.64875,-0.001689107705326715,0.05037841781561792
-3.6475,-0.001354542105338166,0.03429298120589903
-3.64625,0.0009874170945816775,-0.04043727637675324
-3.645,0.003329376294501521,-0.09774164429887673
-3.64375,0.002994810694512972,-0.09271494535833959
-3.6425,0.002660245094524423,-0.07193792307078604
-3.64125,0.002325679494535874,-0.05618759972376964
-3.64,0.001991113894547325,-0.04814488141891021
-3.63875,0.0009874170945816775,-0.0210007071400096
-3.6375,-0.001689107705326715,0.05372955044264268
-3.63625,-0.00336193570526946,0.09092712260261758
-3.635,-0.003027370105280911,0.08690576345018786
-3.63375,-0.002692804505292362,0.06847453400155165
-3.6325,-0.002023673305315264,0.05372955044264268
-3.63125,-0.002023673305315264,0.04401126582427085
-3.63,0.0003182858946045794,-0.01228776230974521
-3.62875,0.002994810694512972,-0.08500734031618262
-3.6275,0.003329376294501521,-0.0984118708242817
-3.62625,0.002994810694512972,-0.07830507506213309
-3.625,0.002660245094524423,-0.06054407213890184
-3.62375,0.002325679494535874,-0.05015556099512506
-3.6225,0.001991113894547325,-0.03842659680053838
-3.62125,-0.0003508453053725187,0.02926628226536189
-3.62,-0.002692804505292362,0.08321951756046062
-3.61875,-0.00336193570526946,0.0905920093399151
-3.6175,-0.002692804505292362,0.07417145946749375
-3.61625,-0.002358238905303813,0.05741579633236992
-3.615,-0.001689107705326715,0.04702728518859314
-3.61375,-0.0006854109053610678,0.01418618544375044
-3.6125,0.001991113894547325,-0.06523565781673651
-3.61125,0.003329376294501521,-0.101427890188604
-3.61,0.002994810694512972,-0.08567756684158757
-3.60875,0.002994810694512972,-0.06557077107943898
-3.6075,0.002325679494535874,-0.0525013538340424
-3.60625,0.002325679494535874,-0.04613420184269534
-3.605,0.0003182858946045794,0.003127447774568714
-3.60375,-0.002023673305315264,0.07048521357776651
-3.6025,-0.00336193570526946,0.09226757565342748
-3.60125,-0.003027370105280911,0.07986838493343586
-3.6,-0.002358238905303813,0.06277760853560954
-3.59875,-0.002023673305315264,0.05037841781561792
-3.5975,-0.001354542105338166,0.03429298120589903
-3.59625,0.001321982694570227,-0.03909682332594334
-3.595,0.003329376294501521,-0.09573096472266188
-3.59375,0.002994810694512972,-0.09036915251942225
-3.5925,0.002660245094524423,-0.06959213023186871
-3.59125,0.002325679494535874,-0.05384180688485231
-3.59,0.002325679494535874,-0.04512886205458792
-3.58875,0.001321982694570227,-0.01899002756379474
-3.5875,-0.001689107705326715,0.05507000349345258
-3.58625,-0.00336193570526946,0.09226757565342748
-3.585,-0.003027370105280911,0.08858132976370024
-3.58375,-0.002358238905303813,0.07082032684046899
-3.5825,-0.002023673305315264,0.05641045654426249
-3.58125,-0.001689107705326715,0.04736239845129563
-3.58,-1.627970538396967e-05,-0.008601516420017967
-3.57875,0.002660245094524423,-0.07998064137564548
-3.5775,0.003329376294501521,-0.09372028514644702
-3.57625,0.002994810694512972,-0.07361348938429842
-3.575,0.002325679494535874,-0.05585248646106716
-3.57375,0.001991113894547325,-0.04546397531729039
-3.5725,0.001656548294558776,-0.03373501112270371
-3.57125,-0.001019976505349617,0.03328764141779161
-3.57,-0.003027370105280911,0.08657065018748539
-3.56875,-0.00336193570526946,0.09427825522964234
-3.5675,-0.002692804505292362,0.07752259209451852
-3.56625,-0.002358238905303813,0.06110204222209716
-3.565,-0.002023673305315264,0.05037841781561792
-3.56375,-0.0006854109053610678,0.01887777112158511
-3.5625,0.001991113894547325,-0.06087918540160431
-3.56125,0.003329376294501521,-0.09707141777347178
-3.56,0.002660245094524423,-0.08132109442645538
-3.55875,0.002325679494535874,-0.06154941192700927
-3.5575,0.001991113894547325,-0.04847999468161268
-3.55625,0.001656548294558776,-0.04211284269026563
-3.555,-1.627970538396967e-05,0.006143467138891003
-3.55375,-0.002692804505292362,0.07283100641668384
-3.5525,-0.00336193570526946,0.0949484817550473
-3.55125,-0.003027370105280911,0.08221417777235318
-3.55,-0.002358238905303813,0.06478828811182441
-3.54875,-0.002023673305315264,0.05205398412913029
-3.5475,-0.001689107705326715,0.03529832099400647
-3.54625,0.0009874170945816775,-0.0380914835378359
-3.545,0.002994810694512972,-0.09439051167185197
-3.54375,0.002994810694512972,-0.09003403925671978
-3.5425,0.002325679494535874,-0.06992724349457118
-3.54125,0.002325679494535874,-0.05417692014755478
-3.54,0.001991113894547325,-0.04579908857999287
-3.53875,0.0009874170945816775,-0.01899002756379474
-3.5375,-0.001689107705326715,0.05473489023075011
-3.53625,-0.00336193570526946,0.09159734912802253
-3.535,-0.00336193570526946,0.08791110323829529
-3.53375,-0.002692804505292362,0.06981498705236155
-3.5325,-0.002023673305315264,0.05507000349345258
-3.53125,-0.002023673305315264,0.04602194540048572
-3.53,-1.627970538396967e-05,-0.00927174294542292
-3.52875,0.002660245094524423,-0.08132109442645538
-3.5275,0.002994810694512972,-0.09573096472266188
-3.52625,0.002660245094524423,-0.0752890556978108
-3.525,0.002325679494535874,-0.05752805277457955
-3.52375,0.001991113894547325,-0.04713954163080277
-3.5225,0.001656548294558776,-0.03541057743621609
-3.52125,-0.001019976505349617,0.03161207510427922
-3.52,-0.003027370105280911,0.084895083873973
-3.51875,-0.00336193570526946,0.09260268891612997
-3.5175,-0.002692804505292362,0.0761821390437086
-3.51625,-0.002358238905303813,0.05942647590858478
-3.515,-0.002023673305315264,0.049037964764808
-3.51375,-0.001019976505349617,0.01686709154537025
-3.5125,0.001991113894547325,-0.06221963845241422
-3.51125,0.003329376294501521,-0.09807675756157921
-3.51,0.002994810694512972,-0.08199132095186033
-3.50875,0.002325679494535874,-0.06221963845241422
-3.5075,0.001991113894547325,-0.04948533446972011
-3.50625,0.001991113894547325,-0.04311818247837305
-3.505,-1.627970538396967e-05,0.005138127350783573
-3.50375,-0.002692804505292362,0.07249589315398136
-3.5025,-0.003696501305258009,0.09427825522964234
-3.50125,-0.003027370105280911,0.08221417777235318
-3.5,-0.002358238905303813,0.06445317484912193
-3.49875,-0.002023673305315264,0.05171887086642782
-3.4975,-0.001689107705326715,0.03596854751941142
-3.49625,0.0009874170945816775,-0.03708614374972848
-3.495,0.002994810694512972,-0.09439051167185197
-3.49375,0.002994810694512972,-0.09003403925671978
-3.4925,0.002325679494535874,-0.06959213023186871
-3.49125,0.002325679494535874,-0.05417692014755478
-3.49,0.001991113894547325,-0.04579908857999287
-3.48875,0.0009874170945816775,-0.01999536735190217
-3.4875,-0.001689107705326715,0.05406466370534516
-3.48625,-0.00336193570526946,0.09092712260261758
-3.485,-0.00336193570526946,0.08757598997559281
-3.48375,-0.002692804505292362,0.06947987378965907
-3.4825,-0.002358238905303813,0.05473489023075011
-3.48125,-0.002023673305315264,0.04501660561237829
-3.48,-1.627970538396967e-05,-0.01061219599623283
-3.47875,0.002660245094524423,-0.08333177400267025
-3.4775,0.002994810694512972,-0.09707141777347178
-3.47625,0.002660245094524423,-0.07729973527402567
-3.475,0.002325679494535874,-0.0595387323507944
-3.47375,0.001991113894547325,-0.04915022120701763
-3.4725,0.001656548294558776,-0.03775637027513343
-3.47125,-0.001019976505349617,0.02960139552806436
-3.47,-0.003027370105280911,0.0835546308231631
-3.46875,-0.003696501305258009,0.09126223586532005
-3.4675,-0.003027370105280911,0.07450657273019623
-3.46625,-0.002358238905303813,0.0577509095950724
-3.465,-0.002023673305315264,0.04736239845129563
-3.46375,-0.001019976505349617,0.01519152523185787
-3.4625,0.001991113894547325,-0.0638952047659266
-3.46125,0.003329376294501521,-0.100757663663199
-3.46,0.002994810694512972,-0.08534245357888511
-3.45875,0.002325679494535874,-0.06590588434214147
-3.4575,0.001991113894547325,-0.05283646709674487
-3.45625,0.001991113894547325,-0.04613420184269534
-3.455,0.0003182858946045794,0.002457221249163761
-3.45375,-0.002358238905303813,0.06947987378965907
-3.4525,-0.003696501305258009,0.09193246239072501
-3.45125,-0.003027370105280911,0.07953327167073337
-3.45,-0.002358238905303813,0.06210738201020459
-3.44875,-0.002023673305315264,0.04970819129021296
-3.4475,-0.001689107705326715,0.03362275468049408
-3.44625,0.0009874170945816775,-0.03943193658864581
-3.445,0.003329376294501521,-0.09707141777347178
-3.44375,0.002994810694512972,-0.09271494535833959
-3.4425,0.002660245094524423,-0.07160280980808356
-3.44125,0.002325679494535874,-0.05618759972376964
-3.44,0.001991113894547325,-0.04747465489350525
-3.43875,0.0009874170945816775,-0.02167093366541455
-3.4375,-0.001689107705326715,0.05205398412913029
-3.43625,-0.00336193570526946,0.08992178281451015
-3.435,-0.00336193570526946,0.0862355369247829
-3.43375,-0.002358238905303813,0.0678043074761467
-3.4325,-0.002023673305315264,0.0533944371799402
-3.43125,-0.001689107705326715,0.04401126582427085
-3.43,0.0003182858946045794,-0.0109473092589353
-3.42875,0.002660245094524423,-0.0840020005280752
-3.4275,0.003329376294501521,-0.09807675756157921
-3.42625,0.002994810694512972,-0.07830507506213309
-3.425,0.002325679494535874,-0.06020895887619936
-3.42375,0.001991113894547325,-0.04948533446972011
-3.4225,0.001656548294558776,-0.03775637027513343
-3.42125,-0.0006854109053610678,0.02960139552806436
-3.42,-0.002692804505292362,0.0835546308231631
-3.41875,-0.00336193570526946,0.09193246239072501
-3.4175,-0.002692804505292362,0.0748416859928987
-3.41625,-0.002023673305315264,0.05842113612047735
-3.415,-0.002023673305315264,0.04803262497670058
-3.41375,-0.0006854109053610678,0.0161968650199653
-3.4125,0.002325679494535874,-0.06322497824052165
-3.41125,0.003329376294501521,-0.1000874371377941
-3.41,0.002994810694512972,-0.08467222705348015
-3.40875,0.002660245094524423,-0.06456543129133155
-3.4075,0.002325679494535874,-0.05116090078323249
-3.40625,0.001991113894547325,-0.04479374879188544
-3.405,0.0003182858946045794,0.003797674299973667
-3.40375,-0.002023673305315264,0.07149055336587394
-3.4025,-0.00336193570526946,0.09360802870423739
-3.40125,-0.003027370105280911,0.08187906450965071
-3.4,-0.002358238905303813,0.06445317484912193
-3.39875,-0.002023673305315264,0.05205398412913029
-3.3975,-0.001354542105338166,0.03596854751941142
-3.39625,0.0009874170945816775,-0.03775637027513343
-3.395,0.002994810694512972,-0.09506073819725692
-3.39375,0.002994810694512972,-0.09036915251942225
-3.3925,0.002660245094524423,-0.06959213023186871
-3.39125,0.002325679494535874,-0.05384180688485231
-3.39,0.002325679494535874,-0.04512886205458792
-3.38875,0.0009874170945816775,-0.01932514082649722
-3.3875,-0.001689107705326715,0.05406466370534516
-3.38625,-0.00336193570526946,0.09193246239072501
-3.385,-0.00336193570526946,0.08891644302640273
-3.38375,-0.002692804505292362,0.07082032684046899
-3.3825,-0.002358238905303813,0.05607534328156001
-3.38125,-0.002023673305315264,0.04669217192589067
-3.38,-1.627970538396967e-05,-0.007931289894613013
-3.37875,0.002660245094524423,-0.08098598116375291
-3.3775,0.003329376294501521,-0.09539585145995941
-3.37625,0.002660245094524423,-0.0752890556978108
-3.375,0.002325679494535874,-0.05752805277457955
-3.37375,0.001991113894547325,-0.0468044283681003
-3.3725,0.001656548294558776,-0.03541057743621609
-3.37125,-0.0006854109053610678,0.03161207510427922
-3.37,-0.003027370105280911,0.08590042366208044
-3.36875,-0.003696501305258009,0.09394314196693987
-3.3675,-0.003027370105280911,0.07718747883181604
-3.36625,-0.002358238905303813,0.06076692895939469
-3.365,-0.002023673305315264,0.05071353107832039
-3.36375,-0.001019976505349617,0.01854265785888264
-3.3625,0.001991113894547325,-0.06087918540160431
-3.36125,0.003329376294501521,-0.09740653103617426
-3.36,0.002994810694512972,-0.08199132095186033
-3.35875,0.002325679494535874,-0.06188452518971174
-3.3575,0.001991113894547325,-0.04881510794431516
-3.35625,0.001991113894547325,-0.0424479559529681
-3.355,0.0003182858946045794,0.005808353876188527
-3.35375,-0.002358238905303813,0.07316611967938631
-3.3525,-0.003696501305258009,0.09561870828045226
-3.35125,-0.003027370105280911,0.0835546308231631
-3.35,-0.002358238905303813,0.06612874116263431
-3.34875,-0.002023673305315264,0.05372955044264268
-3.3475,-0.001354542105338166,0.03831434035832876
-3.34625,0.0009874170945816775,-0.03474035091081114
-3.345,0.002994810694512972,-0.09271494535833959
-3.34375,0.002994810694512972,-0.08869358620590986
-3.3425,0.002660245094524423,-0.0682516771810588
-3.34125,0.001991113894547325,-0.05283646709674487
-3.34,0.001991113894547325,-0.04412352226648048
-3.33875,0.0009874170945816775,-0.01865491430109226
-3.3375,-0.001689107705326715,0.05540511675615506
-3.33625,-0.00336193570526946,0.09226757565342748
-3.335,-0.00336193570526946,0.08891644302640273
-3.33375,-0.002692804505292362,0.07082032684046899
-3.3325,-0.002023673305315264,0.05641045654426249
-3.33125,-0.002023673305315264,0.04736239845129563
-3.33,-1.627970538396967e-05,-0.007931289894613013
-3.32875,0.002660245094524423,-0.08098598116375291
-3.3275,0.003329376294501521,-0.09539585145995941
-3.32625,0.002660245094524423,-0.07595928222321575
-3.325,0.001991113894547325,-0.05752805277457955
-3.32375,0.001991113894547325,-0.0468044283681003
-3.3225,0.001656548294558776,-0.03574569069891857
-3.32125,-0.0006854109053610678,0.03060673531617179
-3.32,-0.003027370105280911,0.08422485734856805
-3.31875,-0.003696501305258009,0.09327291544153492
-3.3175,-0.002692804505292362,0.07651725230641108
-3.31625,-0.002358238905303813,0.06009670243398973
-3.315,-0.002023673305315264,0.04937307802751048
-3.31375,-0.001019976505349617,0.01787243133347768
-3.3125,0.001656548294558776,-0.06121429866430679
-3.31125,0.003329376294501521,-0.0984118708242817
-3.31,0.002994810694512972,-0.08333177400267025
-3.30875,0.002325679494535874,-0.06356009150322413
-3.3075,0.001991113894547325,-0.05116090078323249
-3.30625,0.001991113894547325,-0.04445863552918296
-3.305,0.0003182858946045794,0.00346256103727119
-3.30375,-0.002358238905303813,0.07115544010317146
-3.3025,-0.003696501305258009,0.09327291544153492
-3.30125,-0.00336193570526946,0.08154395124694823
-3.3,-0.002692804505292362,0.06445317484912193
-3.29875,-0.002023673305315264,0.05238909739183277
-3.2975,-0.001354542105338166,0.03663877404481637
-3.29625,0.0009874170945816775,-0.03641591722432352
-3.295,0.002994810694512972,-0.09506073819725692
-3.29375,0.002994810694512972,-0.0910393790448272
-3.2925,0.002660245094524423,-0.07059747001997613
-3.29125,0.002325679494535874,-0.05484714667295974
-3.29,0.001991113894547325,-0.04646931510539782
-3.28875,0.0009874170945816775,-0.0223411601908195
-3.2875,-0.001689107705326715,0.05171887086642782
-3.28625,-0.00336193570526946,0.08992178281451015
-3.285,-0.003027370105280911,0.08657065018748539
-3.28375,-0.002692804505292362,0.06813942073884917
-3.2825,-0.002358238905303813,0.05305932391723772
-3.28125,-0.002023673305315264,0.04367615256156838
-3.28,-1.627970538396967e-05,-0.0109473092589353
-3.27875,0.002660245094524423,-0.0840020005280752
-3.2775,0.003329376294501521,-0.0984118708242817
-3.27625,0.002660245094524423,-0.07864018832483557
-3.275,0.002325679494535874,-0.06087918540160431
-3.27375,0.001991113894547325,-0.05015556099512506
-3.2725,0.001656548294558776,-0.03909682332594334
-3.27125,-0.0006854109053610678,0.02792582921455198
-3.27,-0.002692804505292362,0.08288440429775815
-3.26875,-0.00336193570526946,0.09126223586532005
-3.2675,-0.002692804505292362,0.07450657273019623
-3.26625,-0.002358238905303813,0.0577509095950724
-3.265,-0.002023673305315264,0.04702728518859314
-3.26375,-0.0006854109053610678,0.01653197828266778
-3.2625,0.001991113894547325,-0.06322497824052165
-3.26125,0.003329376294501521,-0.1010927769259015
-3.26,0.002994810694512972,-0.08634779336699254
-3.25875,0.002660245094524423,-0.06624099760484393
-3.2575,0.002325679494535874,-0.05317158035944735
-3.25625,0.002325679494535874,-0.04646931510539782
-3.255,0.0003182858946045794,0.001451881461056331
-3.25375,-0.002358238905303813,0.0691447605269566
-3.2525,-0.00336193570526946,0.09193246239072501
-3.25125,-0.003027370105280911,0.08020349819613833
-3.25,-0.002358238905303813,0.06244249527290707
-3.24875,-0.001689107705326715,0.05004330455291543
-3.2475,-0.001354542105338166,0.03362275468049408
-3.24625,0.001321982694570227,-0.03943193658864581
-3.245,0.003329376294501521,-0.09740653103617426
-3.24375,0.003329376294501521,-0.09372028514644702
-3.2425,0.002994810694512972,-0.072608149596191
-3.24125,0.002325679494535874,-0.05719293951187707
-3.24,0.001991113894547325,-0.04881510794431516
-3.23875,0.001321982694570227,-0.02334649997892694
-3.2375,-0.001354542105338166,0.05104864434102287
-3.23625,-0.00336193570526946,0.08891644302640273
-3.235,-0.003027370105280911,0.08657065018748539
-3.23375,-0.002358238905303813,0.06813942073884917
-3.2325,-0.002023673305315264,0.0533944371799402
-3.23125,-0.001689107705326715,0.04401126582427085
-3.23,0.0003182858946045794,-0.0109473092589353
-3.22875,0.002994810694512972,-0.0840020005280752
-3.2275,0.00366394189449007,-0.0997523238750916
-3.22625,0.002994810694512972,-0.08098598116375291
-3.225,0.002660245094524423,-0.06255475171511669
-3.22375,0.002325679494535874,-0.05149601404593497
-3.2225,0.001991113894547325,-0.03976704985134829
-3.22125,-0.0003508453053725187,0.02725560268914703
-3.22,-0.002692804505292362,0.08187906450965071
-3.21875,-0.00336193570526946,0.09159734912802253
-3.2175,-0.002358238905303813,0.07517679925560118
-3.21625,-0.002023673305315264,0.05875624938317982
-3.215,-0.001689107705326715,0.04803262497670058
-3.21375,-0.0006854109053610678,0.0161968650199653
-3.2125,0.001991113894547325,-0.06322497824052165
-3.21125,0.003329376294501521,-0.1010927769259015
-3.21,0.002994810694512972,-0.08567756684158757
-3.20875,0.002660245094524423,-0.06523565781673651
-3.2075,0.002325679494535874,-0.05216624057133992
-3.20625,0.002325679494535874,-0.04546397531729039
-3.205,0.0003182858946045794,0.002792334511866237
-3.20375,-0.002023673305315264,0.07149055336587394
-3.2025,-0.00336193570526946,0.09461336849234482
-3.20125,-0.003027370105280911,0.08254929103505566
-3.2,-0.002358238905303813,0.06478828811182441
-3.19875,-0.001689107705326715,0.05205398412913029
-3.1975,-0.001354542105338166,0.03663877404481637
-3.19625,0.001321982694570227,-0.03641591722432352
-3.195,0.003329376294501521,-0.09539585145995941
-3.19375,0.003329376294501521,-0.09170960557023215
-3.1925,0.002994810694512972,-0.07126769654538109
-3.19125,0.002660245094524423,-0.05551737319836469
-3.19,0.002325679494535874,-0.0468044283681003
-3.18875,0.001321982694570227,-0.0210007071400096
-3.1875,-0.001354542105338166,0.05305932391723772
-3.18625,-0.003027370105280911,0.09126223586532005
-3.185,-0.003027370105280911,0.08858132976370024
-3.18375,-0.002358238905303813,0.07048521357776651
-3.1825,-0.002023673305315264,0.05574023001885754
-3.18125,-0.001689107705326715,0.04635705866318819
-3.18,0.0003182858946045794,-0.008601516420017967
-3.17875,0.002994810694512972,-0.08199132095186033
-3.1775,0.003329376294501521,-0.09774164429887673
-3.17625,0.002994810694512972,-0.07796996179943062
-3.175,0.002660245094524423,-0.0595387323507944
-3.17375,0.001991113894547325,-0.04881510794431516
-3.1725,0.001991113894547325,-0.03708614374972848
-3.17125,-0.0006854109053610678,0.02993650879076684
-3.17,-0.002692804505292362,0.08523019713667547
-3.16875,-0.00336193570526946,0.09394314196693987
-3.1675,-0.002692804505292362,0.07718747883181604
-3.16625,-0.002023673305315264,0.06076692895939469
-3.165,-0.002023673305315264,0.05004330455291543
-3.16375,-0.0006854109053610678,0.01921288438428759
-3.1625,0.002325679494535874,-0.06020895887619936
-3.16125,0.00366394189449007,-0.09807675756157921
-3.16,0.002994810694512972,-0.08366688726537272
-3.15875,0.002660245094524423,-0.06356009150322413
-3.1575,0.002325679494535874,-0.05049067425782754
-3.15625,0.002325679494535874,-0.04378840900377801
-3.155,0.0003182858946045794,0.003797674299973667
-3.15375,-0.002023673305315264,0.07249589315398136
-3.1525,-0.00336193570526946,0.09561870828045226
-3.15125,-0.002692804505292362,0.08422485734856805
-3.15,-0.002023673305315264,0.06679896768803927
-3.14875,-0.001689107705326715,0.05406466370534516
-3.1475,-0.001354542105338166,0.03898456688373371
-3.14625,0.001321982694570227,-0.03440523764810866
-3.145,0.003329376294501521,-0.09372028514644702
-3.14375,0.003329376294501521,-0.09036915251942225
-3.1425,0.002660245094524423,-0.06992724349457118
-3.14125,0.002325679494535874,-0.05417692014755478
-3.14,0.002325679494535874,-0.04579908857999287
-3.13875,0.001321982694570227,-0.02033048061460465
-3.1375,-0.001354542105338166,0.05406466370534516
-3.13625,-0.00336193570526946,0.09260268891612997
-3.135,-0.003027370105280911,0.08925155628910519
-3.13375,-0.002358238905303813,0.07149055336587394
-3.1325,-0.002023673305315264,0.05641045654426249
-3.13125,-0.001689107705326715,0.04736239845129563
-3.13,0.0003182858946045794,-0.008936629682720442
-3.12875,0.002994810694512972,-0.08232643421456282
-3.1275,0.003329376294501521,-0.09673630451076931
-3.12625,0.002994810694512972,-0.07662950874862071
-3.125,0.002660245094524423,-0.0581982792999845
-3.12375,0.002325679494535874,-0.04747465489350525
-3.1225,0.001991113894547325,-0.03641591722432352
-3.12125,-0.0006854109053610678,0.03060673531617179
-3.12,-0.003027370105280911,0.08556531039937795
-3.11875,-0.00336193570526946,0.0949484817550473
-3.1175,-0.002692804505292362,0.07819281861992347
-3.11625,-0.002023673305315264,0.06143715548479964
-3.115,-0.001689107705326715,0.05071353107832039
-3.11375,-0.001019976505349617,0.01921288438428759
-3.1125,0.001991113894547325,-0.06054407213890184
-3.11125,0.003329376294501521,-0.09908209734968665
-3.11,0.002994810694512972,-0.0840020005280752
-3.10875,0.002660245094524423,-0.06356009150322413
-3.1075,0.002325679494535874,-0.05049067425782754
-3.10625,0.002325679494535874,-0.04378840900377801
-3.105,0.0003182858946045794,0.003797674299973667
-3.10375,-0.002358238905303813,0.07216077989127889
-3.1025,-0.00336193570526946,0.09528359501774977
-3.10125,-0.003027370105280911,0.08388974408586557
-3.1,-0.002358238905303813,0.06612874116263431
-3.09875,-0.002023673305315264,0.0533944371799402
-3.0975,-0.001689107705326715,0.0376441138329238
-3.09625,0.001321982694570227,-0.03507546417351361
-3.095,0.003329376294501521,-0.09405539840914949
-3.09375,0.002994810694512972,-0.09070426578212473
-3.0925,0.002994810694512972,-0.06992724349457118
-3.09125,0.002325679494535874,-0.05384180688485231
-3.09,0.002325679494535874,-0.04546397531729039
-3.08875,0.0009874170945816775,-0.02066559387730712
-3.0875,-0.001354542105338166,0.05406466370534516
-3.08625,-0.00336193570526946,0.09260268891612997
-3.085,-0.00336193570526946,0.08958666955180768
-3.08375,-0.002692804505292362,0.07149055336587394
-3.0825,-0.002023673305315264,0.05674556980696497
-3.08125,-0.001689107705326715,0.04702728518859314
-3.08,-1.627970538396967e-05,-0.00726106336920806
-3.07875,0.002660245094524423,-0.08065086790105043
-3.0775,0.003329376294501521,-0.09640119124806683
-3.07625,0.002994810694512972,-0.07696462201132319
-3.075,0.002325679494535874,-0.05886850582538945
-3.07375,0.001991113894547325,-0.04814488141891021
-3.0725,0.001991113894547325,-0.036751030487026
-3.07125,-0.0006854109053610678,0.02993650879076684
-3.07,-0.003027370105280911,0.08523019713667547
-3.06875,-0.00336193570526946,0.09394314196693987
-3.0675,-0.002692804505292362,0.07752259209451852
-3.06625,-0.002358238905303813,0.06076692895939469
-3.065,-0.002023673305315264,0.05037841781561792
-3.06375,-0.0006854109053610678,0.01887777112158511
-3.0625,0.001991113894547325,-0.06121429866430679
-3.06125,0.00366394189449007,-0.09908209734968665
-3.06,0.002994810694512972,-0.0840020005280752
-3.05875,0.002660245094524423,-0.06356009150322413
-3.0575,0.002325679494535874,-0.05116090078323249
-3.05625,0.001991113894547325,-0.04445863552918296
-3.055,0.0003182858946045794,0.00346256103727119
-3.05375,-0.002023673305315264,0.07216077989127889
-3.0525,-0.00336193570526946,0.09528359501774977
-3.05125,-0.003027370105280911,0.0835546308231631
-3.05,-0.002358238905303813,0.06612874116263431
-3.04875,-0.001689107705326715,0.0533944371799402
-3.0475,-0.001354542105338166,0.03797922709562628
-3.04625,0.001321982694570227,-0.03507546417351361
-3.045,0.003329376294501521,-0.09405539840914949
-3.04375,0.003329376294501521,-0.0910393790448272
-3.0425,0.002660245094524423,-0.07059747001997613
-3.04125,0.002325679494535874,-0.05451203341025726
-3.04,0.001991113894547325,-0.04613420184269534
-3.03875,0.001321982694570227,-0.02133582040271208
-3.0375,-0.001689107705326715,0.05305932391723772
-3.03625,-0.00336193570526946,0.09193246239072501
-3.035,-0.00336193570526946,0.08925155628910519
-3.03375,-0.002358238905303813,0.07115544010317146
-3.0325,-0.002023673305315264,0.05641045654426249
-3.03125,-0.002023673305315264,0.04635705866318819
-3.03,0.0003182858946045794,-0.007931289894613013
-3.02875,0.002994810694512972,-0.08232643421456282
-3.0275,0.003329376294501521,-0.09807675756157921
-3.02625,0.002660245094524423,-0.07830507506213309
-3.025,0.002325679494535874,-0.05987384561349688
-3.02375,0.001991113894547325,-0.04948533446972011
-3.0225,0.001656548294558776,-0.03842659680053838
-3.02125,-0.0006854109053610678,0.02826094247725446
-3.02,-0.002692804505292362,0.08388974408586557
-3.01875,-0.00336193570526946,0.09260268891612997
-3.0175,-0.002692804505292362,0.07584702578100613
-3.01625,-0.002023673305315264,0.05875624938317982
-3.015,-0.001689107705326715,0.04803262497670058
-3.01375,-0.0006854109053610678,0.01653197828266778
-3.0125,0.002325679494535874,-0.06356009150322413
-3.01125,0.003329376294501521,-0.101427890188604
-3.01,0.002994810694512972,-0.08601268010429006
-3.00875,0.002660245094524423,-0.06557077107943898
-3.0075,0.002325679494535874,-0.0525013538340424
-3.00625,0.002325679494535874,-0.04579908857999287
-3.005,0.0003182858946045794,0.001451881461056331
-3.00375,-0.002023673305315264,0.07015010031506402
-3.0025,-0.00336193570526946,0.09394314196693987
-3.00125,-0.003027370105280911,0.08221417777235318
-3,-0.002023673305315264,0.06545851463722936
-2.99875,-0.002023673305315264,0.05205398412913029
-2.9975,-0.001354542105338166,0.03663877404481637
-2.99625,0.001321982694570227,-0.03608080396162105
-2.995,0.003329376294501521,-0.09539585145995941
-2.99375,0.003329376294501521,-0.09204471883293464
-2.9925,0.002994810694512972,-0.07126769654538109
-2.99125,0.002325679494535874,-0.05551737319836469
-2.99,0.002325679494535874,-0.0468044283681003
-2.98875,0.001321982694570227,-0.02200604692811703
-2.9875,-0.001354542105338166,0.05272421065453525
-2.98625,-0.003027370105280911,0.09226757565342748
-2.985,-0.00336193570526946,0.09025689607721263
-2.98375,-0.002358238905303813,0.07216077989127889
-2.9825,-0.002023673305315264,0.05708068306966745
-2.98125,-0.001689107705326715,0.0476975117139981
-2.98,0.0003182858946045794,-0.00726106336920806
-2.97875,0.002994810694512972,-0.08031575463834796
-2.9775,0.003329376294501521,-0.09606607798536436
-2.97625,0.002994810694512972,-0.07629439548591824
-2.975,0.002660245094524423,-0.0581982792999845
-2.97375,0.002325679494535874,-0.04713954163080277
-2.9725,0.001991113894547325,-0.03608080396162105
-2.97125,-0.0006854109053610678,0.03027162205346932
-2.97,-0.002692804505292362,0.08523019713667547
-2.96875,-0.00336193570526946,0.0949484817550473
-2.9675,-0.002692804505292362,0.07819281861992347
-2.96625,-0.002023673305315264,0.06177226874750211
-2.965,-0.002023673305315264,0.05104864434102287
-2.96375,-0.0006854109053610678,0.0205533374350975
-2.9625,0.001991113894547325,-0.05920361908809193
-2.96125,0.003329376294501521,-0.09774164429887673
-2.96,0.002994810694512972,-0.08266154747726528
-2.95875,0.002660245094524423,-0.06288986497781918
-2.9575,0.002325679494535874,-0.04982044773242258
-2.95625,0.001991113894547325,-0.04345329574107553
-2.955,0.0003182858946045794,0.004132787562676143
-2.95375,-0.002358238905303813,0.07216077989127889
-2.9525,-0.00336193570526946,0.09595382154315472
-2.95125,-0.003027370105280911,0.08455997061127052
-2.95,-0.002358238905303813,0.06679896768803927
-2.94875,-0.002023673305315264,0.05439977696804763
-2.9475,-0.001354542105338166,0.03931968014643619
-2.94625,0.001321982694570227,-0.03339989786000123
-2.945,0.003329376294501521,-0.09271494535833959
-2.94375,0.003329376294501521,-0.08936381273131483
-2.9425,0.002994810694512972,-0.06858679044376127
-2.94125,0.002325679494535874,-0.05317158035944735
-2.94,0.001991113894547325,-0.04479374879188544
-2.93875,0.001321982694570227,-0.01999536735190217
-2.9375,-0.001689107705326715,0.05473489023075011
-2.93625,-0.00336193570526946,0.09360802870423739
-2.935,-0.00336193570526946,0.09092712260261758
-2.93375,-0.002358238905303813,0.07283100641668384
-2.9325,-0.002023673305315264,0.0577509095950724
-2.93125,-0.001689107705326715,0.04937307802751048
-2.93,-1.627970538396967e-05,-0.004580157267588247
-2.92875,0.002660245094524423,-0.07897530158753804
-2.9275,0.002994810694512972,-0.09472562493455444
-2.92625,0.002660245094524423,-0.07495394243510833
-2.925,0.002325679494535874,-0.05685782624917459
-2.92375,0.001991113894547325,-0.04579908857999287
-2.9225,0.001656548294558776,-0.03507546417351361
-2.92125,-0.0006854109053610678,0.03161207510427922
-2.92,-0.002692804505292362,0.08657065018748539
-2.91875,-0.003696501305258009,0.09528359501774977
-2.9175,-0.003027370105280911,0.07886304514532842
-2.91625,-0.002358238905303813,0.06244249527290707
-2.915,-0.002023673305315264,0.05171887086642782
-2.91375,-0.001019976505349617,0.02122356396050245
-2.9125,0.001656548294558776,-0.05786316603728203
-2.91125,0.002994810694512972,-0.09640119124806683
-2.91,0.002660245094524423,-0.08165620768915786
-2.90875,0.002325679494535874,-0.06154941192700927
-2.9075,0.001991113894547325,-0.04847999468161268
-2.90625,0.001991113894547325,-0.04211284269026563
-2.905,0.0003182858946045794,0.004803014088081097
-2.90375,-0.002358238905303813,0.0735012329420888
-2.9025,-0.003696501305258009,0.09695916133126216
-2.90125,-0.00336193570526946,0.08523019713667547
-2.9,-0.002692804505292362,0.06746919421344422
-2.89875,-0.002023673305315264,0.05439977696804763
-2.8975,-0.001689107705326715,0.03898456688373371
-2.89625,0.0009874170945816775,-0.03339989786000123
-2.895,0.002994810694512972,-0.09271494535833959
-2.89375,0.002994810694512972,-0.09003403925671978
-2.8925,0.002660245094524423,-0.06925701696916622
-2.89125,0.002325679494535874,-0.05384180688485231
-2.89,0.001991113894547325,-0.04546397531729039
-2.88875,0.0009874170945816775,-0.0210007071400096
-2.8875,-0.001689107705326715,0.05305932391723772
-2.88625,-0.00336193570526946,0.09193246239072501
-2.885,-0.00336193570526946,0.08958666955180768
-2.88375,-0.002692804505292362,0.07149055336587394
-2.8825,-0.002358238905303813,0.05641045654426249
-2.88125,-0.002023673305315264,0.04736239845129563
-2.88,-1.627970538396967e-05,-0.006590836843803107
-2.87875,0.002660245094524423,-0.07998064137564548
-2.8775,0.002994810694512972,-0.09673630451076931
-2.87625,0.002660245094524423,-0.07729973527402567
-2.875,0.002325679494535874,-0.05886850582538945
-2.87375,0.001991113894547325,-0.04814488141891021
-2.8725,0.001656548294558776,-0.03742125701243095
-2.87125,-0.0006854109053610678,0.02893116900265941
-2.87,-0.003027370105280911,0.08455997061127052
-2.86875,-0.003696501305258009,0.09360802870423739
-2.8675,-0.003027370105280911,0.07718747883181604
-2.86625,-0.002358238905303813,0.06043181569669221
-2.865,-0.002023673305315264,0.05004330455291543
-2.86375,-0.001019976505349617,0.01854265785888264
-2.8625,0.001991113894547325,-0.06121429866430679
-2.86125,0.003329376294501521,-0.09941721061238912
-2.86,0.002994810694512972,-0.08433711379077767
-2.85875,0.002325679494535874,-0.06423031802862908
-2.8575,0.001991113894547325,-0.05116090078323249
-2.85625,0.001991113894547325,-0.04479374879188544
-2.855,0.0003182858946045794,0.002457221249163761
-2.85375,-0.002358238905303813,0.07082032684046899
-2.8525,-0.00336193570526946,0.09461336849234482
-2.85125,-0.003027370105280911,0.08321951756046062
-2.85,-0.002358238905303813,0.06579362789993183
-2.84875,-0.002023673305315264,0.05305932391723772
-2.8475,-0.001689107705326715,0.03831434035832876
-2.84625,0.0009874170945816775,-0.03407012438540619
-2.845,0.002994810694512972,-0.09372028514644702
-2.84375,0.002994810694512972,-0.0910393790448272
-2.8425,0.002660245094524423,-0.07059747001997613
-2.84125,0.002325679494535874,-0.05451203341025726
-2.84,0.001991113894547325,-0.04579908857999287
-2.83875,0.001321982694570227,-0.0210007071400096
-2.8375,-0.001689107705326715,0.05305932391723772
-2.83625,-0.00336193570526946,0.09193246239072501
-2.835,-0.00336193570526946,0.08925155628910519
-2.83375,-0.002692804505292362,0.07082032684046899
-2.8325,-0.002023673305315264,0.05574023001885754
-2.83125,-0.002023673305315264,0.04635705866318819
-2.83,-1.627970538396967e-05,-0.007596176631910537
-2.82875,0.002660245094524423,-0.08098598116375291
-2.8275,0.003329376294501521,-0.09707141777347178
-2.82625,0.002994810694512972,-0.07696462201132319
-2.825,0.002660245094524423,-0.05853339256268698
-2.82375,0.001991113894547325,-0.04747465489350525
-2.8225,0.001656548294558776,-0.03708614374972848
-2.82125,-0.0006854109053610678,0.02960139552806436
-2.82,-0.003027370105280911,0.08523019713667547
-2.81875,-0.003696501305258009,0.09427825522964234
-2.8175,-0.003027370105280911,0.07785770535722099
-2.81625,-0.002358238905303813,0.06076692895939469
-2.815,-0.002023673305315264,0.05037841781561792
-2.81375,-0.001019976505349617,0.01988311090969254
-2.8125,0.001991113894547325,-0.05987384561349688
-2.81125,0.003329376294501521,-0.0984118708242817
-2.81,0.002994810694512972,-0.08333177400267025
-2.80875,0.002325679494535874,-0.06322497824052165
-2.8075,0.001991113894547325,-0.05049067425782754
-2.80625,0.001991113894547325,-0.04378840900377801
-2.805,0.0003182858946045794,0.002792334511866237
-2.80375,-0.002358238905303813,0.07149055336587394
-2.8025,-0.003696501305258009,0.0949484817550473
-2.80125,-0.003027370105280911,0.08321951756046062
-2.8,-0.002692804505292362,0.06512340137452688
-2.79875,-0.002023673305315264,0.05272421065453525
-2.7975,-0.001689107705326715,0.03730900057022132
-2.79625,0.0009874170945816775,-0.03541057743621609
-2.795,0.003329376294501521,-0.09472562493455444
-2.79375,0.002994810694512972,-0.09170960557023215
-2.7925,0.002660245094524423,-0.07126769654538109
-2.79125,0.002325679494535874,-0.05551737319836469
-2.79,0.001991113894547325,-0.0468044283681003
-2.78875,0.0009874170945816775,-0.02200604692811703
-2.7875,-0.001689107705326715,0.05171887086642782
-2.78625,-0.00336193570526946,0.0905920093399151
-2.785,-0.00336193570526946,0.08824621650099776
-2.78375,-0.002692804505292362,0.07015010031506402
-2.7825,-0.002358238905303813,0.05507000349345258
-2.78125,-0.002023673305315264,0.04568683213778324
-2.78,-1.627970538396967e-05,-0.007931289894613013
-2.77875,0.002660245094524423,-0.08199132095186033
-2.7775,0.002994810694512972,-0.09807675756157921
-2.77625,0.002660245094524423,-0.07830507506213309
-2.775,0.002325679494535874,-0.06054407213890184
-2.77375,0.001991113894547325,-0.04948533446972011
-2.7725,0.001656548294558776,-0.03876171006324086
-2.77125,-0.0006854109053610678,0.02692048942644455
-2.77,-0.003027370105280911,0.08254929103505566
-2.76875,-0.003696501305258009,0.09193246239072501
-2.7675,-0.002692804505292362,0.07551191251830365
-2.76625,-0.002358238905303813,0.05875624938317982
-2.765,-0.002023673305315264,0.04803262497670058
-2.76375,-0.001019976505349617,0.01787243133347768
-2.7625,0.001991113894547325,-0.06221963845241422
-2.76125,0.003329376294501521,-0.1010927769259015
-2.76,0.002994810694512972,-0.08567756684158757
-2.75875,0.002325679494535874,-0.06557077107943898
-2.7575,0.001991113894547325,-0.0525013538340424
-2.75625,0.001991113894547325,-0.04579908857999287
-2.755,0.0003182858946045794,0.001116768198353854
-2.75375,-0.002358238905303813,0.06947987378965907
-2.7525,-0.003696501305258009,0.09327291544153492
-2.75125,-0.00336193570526946,0.08154395124694823
-2.75,-0.002358238905303813,0.06344783506101449
-2.74875,-0.002023673305315264,0.05037841781561792
-2.7475,-0.001354542105338166,0.03429298120589903
-2.74625,0.0009874170945816775,-0.03976704985134829
-2.745,0.003329376294501521,-0.0984118708242817
-2.74375,0.003329376294501521,-0.09338517188374454
-2.7425,0.002660245094524423,-0.07294326285889347
-2.74125,0.002325679494535874,-0.05719293951187707
-2.74,0.001991113894547325,-0.04847999468161268
-2.73875,0.001321982694570227,-0.02435183976703437
-2.7375,-0.001689107705326715,0.05004330455291543
-2.73625,-0.00336193570526946,0.08858132976370024
-2.735,-0.00336193570526946,0.0862355369247829
-2.73375,-0.002692804505292362,0.06813942073884917
-2.7325,-0.002023673305315264,0.0533944371799402
-2.73125,-0.001689107705326715,0.04468149234967581
-2.73,-1.627970538396967e-05,-0.00927174294542292
-2.72875,0.002660245094524423,-0.08266154747726528
-2.7275,0.003329376294501521,-0.09941721061238912
-2.72625,0.002994810694512972,-0.079645528112943
-2.725,0.002325679494535874,-0.06154941192700927
-2.72375,0.001991113894547325,-0.05049067425782754
-2.7225,0.001656548294558776,-0.03976704985134829
-2.72125,-0.0006854109053610678,0.02658537616374208
-2.72,-0.003027370105280911,0.08187906450965071
-2.71875,-0.00336193570526946,0.09159734912802253
-2.7175,-0.002692804505292362,0.07450657273019623
-2.71625,-0.002358238905303813,0.05808602285777487
-2.715,-0.001689107705326715,0.04736239845129563
-2.71375,-0.001019976505349617,0.01653197828266778
-2.7125,0.002325679494535874,-0.06288986497781918
-2.71125,0.003329376294501521,-0.101427890188604
-2.71,0.002994810694512972,-0.08668290662969501
-2.70875,0.002325679494535874,-0.06657611086754642
-2.7075,0.002325679494535874,-0.05317158035944735
-2.70625,0.001991113894547325,-0.0468044283681003
-2.705,0.0003182858946045794,-0.000223684852456052
-2.70375,-0.002023673305315264,0.06880964726425412
-2.7025,-0.00336193570526946,0.09260268891612997
-2.70125,-0.002692804505292362,0.08120883798424576
-2.7,-0.002023673305315264,0.06411806158641944
-2.69875,-0.002023673305315264,0.05138375760372534
-2.6975,-0.001354542105338166,0.0363036607821139
-2.69625,0.0009874170945816775,-0.03608080396162105
-2.695,0.003329376294501521,-0.09573096472266188
-2.69375,0.003329376294501521,-0.09271494535833959
-2.6925,0.002660245094524423,-0.07193792307078604
-2.69125,0.002660245094524423,-0.05618759972376964
-2.69,0.002325679494535874,-0.04747465489350525
-2.68875,0.001321982694570227,-0.02301138671622446
-2.6875,-0.001354542105338166,0.05071353107832039
-2.68625,-0.003027370105280911,0.09025689607721263
-2.685,-0.003027370105280911,0.08757598997559281
-2.68375,-0.002358238905303813,0.06981498705236155
-2.6825,-0.002023673305315264,0.05507000349345258
-2.68125,-0.001689107705326715,0.04602194540048572
-2.68,-1.627970538396967e-05,-0.007931289894613013
-2.67875,0.002994810694512972,-0.08165620768915786
-2.6775,0.003329376294501521,-0.09807675756157921
-2.67625,0.002994810694512972,-0.07830507506213309
-2.675,0.002660245094524423,-0.06020895887619936
-2.67375,0.002325679494535874,-0.04915022120701763
-2.6725,0.001991113894547325,-0.03876171006324086
-2.67125,-0.0006854109053610678,0.0275907159518495
-2.67,-0.002692804505292362,0.08288440429775815
-2.66875,-0.00336193570526946,0.09260268891612997
-2.6675,-0.002692804505292362,0.07584702578100613
-2.66625,-0.002023673305315264,0.05942647590858478
-2.665,-0.002023673305315264,0.04870285150210553
-2.66375,-0.001019976505349617,0.01887777112158511
-2.6625,0.001991113894547325,-0.06020895887619936
-2.66125,0.00366394189449007,-0.1000874371377941
-2.66,0.002994810694512972,-0.08601268010429006
-2.65875,0.002660245094524423,-0.06557077107943898
-2.6575,0.002325679494535874,-0.05283646709674487
-2.65625,0.001991113894547325,-0.04613420184269534
-2.655,0.0003182858946045794,0.0004465416729489012
-2.65375,-0.002358238905303813,0.0691447605269566
-2.6525,-0.00336193570526946,0.09260268891612997
-2.65125,-0.003027370105280911,0.08087372472154328
-2.65,-0.002358238905303813,0.06311272179831202
-2.64875,-0.002023673305315264,0.05037841781561792
-2.6475,-0.001354542105338166,0.03596854751941142
-2.64625,0.001321982694570227,-0.03608080396162105
-2.645,0.003329376294501521,-0.09606607798536436
-2.64375,0.003329376294501521,-0.09338517188374454
-2.6425,0.002994810694512972,-0.07227303633348851
-2.64125,0.002325679494535874,-0.05685782624917459
-2.64,0.002325679494535874,-0.04847999468161268
-2.63875,0.001321982694570227,-0.02435183976703437
-2.6375,-0.001354542105338166,0.04970819129021296
-2.63625,-0.003027370105280911,0.08958666955180768
-2.635,-0.003027370105280911,0.08690576345018786
-2.63375,-0.002358238905303813,0.06847453400155165
-2.6325,-0.002023673305315264,0.05406466370534516
-2.63125,-0.001689107705326715,0.04501660561237829
-2.63,-1.627970538396967e-05,-0.007931289894613013
-2.62875,0.002994810694512972,-0.08165620768915786
-2.6275,0.003329376294501521,-0.0984118708242817
-2.62625,0.002994810694512972,-0.07897530158753804
-2.625,0.002660245094524423,-0.06087918540160431
-2.62375,0.002325679494535874,-0.04982044773242258
-2.6225,0.001991113894547325,-0.03909682332594334
-2.62125,-0.0006854109053610678,0.02692048942644455
-2.62,-0.002692804505292362,0.08288440429775815
-2.61875,-0.00336193570526946,0.09293780217883243
-2.6175,-0.002692804505292362,0.0761821390437086
-2.61625,-0.002023673305315264,0.05942647590858478
-2.615,-0.001689107705326715,0.049037964764808
-2.61375,-0.0006854109053610678,0.01887777112158511
-2.6125,0.002325679494535874,-0.06054407213890184
-2.61125,0.00366394189449007,-0.0997523238750916
-2.61,0.003329376294501521,-0.08534245357888511
-2.60875,0.002660245094524423,-0.06523565781673651
-2.6075,0.002325679494535874,-0.05149601404593497
-2.60625,0.001991113894547325,-0.04512886205458792
-2.605,0.0006528514945931285,0.001451881461056331
-2.60375,-0.002023673305315264,0.07048521357776651
-2.6025,-0.00336193570526946,0.09427825522964234
-2.60125,-0.002692804505292362,0.08288440429775815
-2.6,-0.002358238905303813,0.06545851463722936
-2.59875,-0.002023673305315264,0.05238909739183277
-2.5975,-0.001354542105338166,0.03797922709562628
-2.59625,0.001321982694570227,-0.03373501112270371
-2.595,0.003329376294501521,-0.09372028514644702
-2.59375,0.003329376294501521,-0.09137449230752968
-2.5925,0.002994810694512972,-0.07059747001997613
-2.59125,0.002325679494535874,-0.05484714667295974
-2.59,0.002325679494535874,-0.04546397531729039
-2.58875,0.001321982694570227,-0.02167093366541455
-2.5875,-0.001354542105338166,0.05272421065453525
-2.58625,-0.003027370105280911,0.09226757565342748
-2.585,-0.003027370105280911,0.08992178281451015
-2.58375,-0.002358238905303813,0.07182566662857641
-2.5825,-0.002023673305315264,0.05674556980696497
-2.58125,-0.001689107705326715,0.0476975117139981
-2.58,0.0003182858946045794,-0.004915270530290724
-2.57875,0.002994810694512972,-0.07897530158753804
-2.5775,0.00366394189449007,-0.09606607798536436
-2.57625,0.002994810694512972,-0.07662950874862071
-2.575,0.002660245094524423,-0.0581982792999845
-2.57375,0.002325679494535874,-0.04747465489350525
-2.5725,0.001656548294558776,-0.036751030487026
-2.57125,-0.0006854109053610678,0.02926628226536189
-2.57,-0.002692804505292362,0.08523019713667547
-2.56875,-0.00336193570526946,0.0949484817550473
-2.5675,-0.002692804505292362,0.07852793188262594
-2.56625,-0.002023673305315264,0.06210738201020459
-2.565,-0.001689107705326715,0.05138375760372534
-2.56375,-0.0006854109053610678,0.02122356396050245
-2.5625,0.001991113894547325,-0.05786316603728203
-2.56125,0.003329376294501521,-0.09740653103617426
-2.56,0.002994810694512972,-0.08299666073996777
-2.55875,0.002660245094524423,-0.06255475171511669
-2.5575,0.002325679494535874,-0.04948533446972011
-2.55625,0.002325679494535874,-0.0424479559529681
-2.555,0.0003182858946045794,0.003797674299973667
-2.55375,-0.002358238905303813,0.07283100641668384
-2.5525,-0.00336193570526946,0.09595382154315472
-2.55125,-0.003027370105280911,0.08455997061127052
-2.55,-0.002358238905303813,0.06679896768803927
-2.54875,-0.002023673305315264,0.05439977696804763
-2.5475,-0.001354542105338166,0.03998990667184114
-2.54625,0.0009874170945816775,-0.03172433154648885
-2.545,0.003329376294501521,-0.09170960557023215
-2.54375,0.003329376294501521,-0.08902869946861235
-2.5425,0.002660245094524423,-0.06691122413024889
-2.54125,0.002325679494535874,-0.05082578752053002
-2.54,0.001991113894547325,-0.0424479559529681
-2.53875,0.001321982694570227,-0.01831980103838979
-2.5375,-0.001354542105338166,0.05574023001885754
-2.53625,-0.00336193570526946,0.09528359501774977
-2.535,-0.00336193570526946,0.09293780217883243
-2.53375,-0.002692804505292362,0.07450657273019623
-2.5325,-0.002023673305315264,0.05976158917128726
-2.53125,-0.002023673305315264,0.05037841781561792
-2.53,-1.627970538396967e-05,-0.002569477691373388
-2.52875,0.002660245094524423,-0.07629439548591824
-2.5275,0.003329376294501521,-0.09338517188374454
-2.52625,0.002994810694512972,-0.0739486026470009
-2.525,0.002325679494535874,-0.05451203341025726
-2.52375,0.001991113894547325,-0.04378840900377801
-2.5225,0.001656548294558776,-0.03306478459729876
-2.52125,-0.0006854109053610678,0.03295252815508913
-2.52,-0.003027370105280911,0.08891644302640273
-2.51875,-0.003696501305258009,0.09829961438207206
-2.5175,-0.003027370105280911,0.08154395124694823
-2.51625,-0.002358238905303813,0.06445317484912193
-2.515,-0.002023673305315264,0.05406466370534516
-2.51375,-0.001019976505349617,0.02457469658752721
-2.5125,0.001991113894547325,-0.05484714667295974
-2.51125,0.003329376294501521,-0.09472562493455444
-2.51,0.002994810694512972,-0.08031575463834796
-2.50875,0.002325679494535874,-0.06020895887619936
-2.5075,0.001991113894547325,-0.04747465489350525
-2.50625,0.001991113894547325,-0.04077238963945572
-2.505,0.0003182858946045794,0.005138127350783573
-2.50375,-0.002358238905303813,0.07417145946749375
-2.5025,-0.003696501305258009,0.09762938785666711
-2.50125,-0.003027370105280911,0.08657065018748539
-2.5,-0.002358238905303813,0.06880964726425412
-2.49875,-0.002023673305315264,0.05574023001885754
-2.4975,-0.001689107705326715,0.04099524645994856
-2.49625,0.0009874170945816775,-0.03138921828378637
-2.495,0.002994810694512972,-0.09137449230752968
-2.49375,0.002994810694512972,-0.08936381273131483
-2.4925,0.002660245094524423,-0.06892190370646376
-2.49125,0.002325679494535874,-0.05283646709674487
-2.49,0.001991113894547325,-0.04412352226648048
-2.48875,0.001321982694570227,-0.02066559387730712
-2.4875,-0.001689107705326715,0.0533944371799402
-2.48625,-0.00336193570526946,0.09293780217883243
-2.485,-0.00336193570526946,0.0905920093399151
-2.48375,-0.002692804505292362,0.07216077989127889
-2.4825,-0.002358238905303813,0.05708068306966745
-2.48125,-0.002023673305315264,0.0476975117139981
-2.48,-1.627970538396967e-05,-0.005585497055695677
-2.47875,0.002660245094524423,-0.07998064137564548
-2.4775,0.003329376294501521,-0.09707141777347178
-2.47625,0.002660245094524423,-0.07796996179943062
-2.475,0.002325679494535874,-0.0595387323507944
-2.47375,0.001991113894547325,-0.04881510794431516
-2.4725,0.001656548294558776,-0.03842659680053838
-2.47125,-0.0006854109053610678,0.0275907159518495
-2.47,-0.003027370105280911,0.08321951756046062
-2.46875,-0.003696501305258009,0.09327291544153492
-2.4675,-0.003027370105280911,0.0761821390437086
-2.46625,-0.002358238905303813,0.05942647590858478
-2.465,-0.002023673305315264,0.04870285150210553
-2.46375,-0.001019976505349617,0.01887777112158511
-2.4625,0.001656548294558776,-0.06020895887619936
-2.46125,0.003329376294501521,-0.1004225504004966
-2.46,0.002994810694512972,-0.08601268010429006
-2.45875,0.002660245094524423,-0.06590588434214147
-2.4575,0.001991113894547325,-0.05283646709674487
-2.45625,0.001991113894547325,-0.04613420184269534
-2.455,0.0003182858946045794,-0.000223684852456052
-2.45375,-0.002358238905303813,0.06847453400155165
-2.4525,-0.003696501305258009,0.09260268891612997
-2.45125,-0.003027370105280911,0.08154395124694823
-2.45,-0.002358238905303813,0.06378294832371698
-2.44875,-0.002023673305315264,0.05071353107832039
-2.4475,-0.001354542105338166,0.03596854751941142
-2.44625,0.0009874170945816775,-0.036751030487026
-2.445,0.003329376294501521,-0.09640119124806683
-2.44375,0.002994810694512972,-0.09372028514644702
-2.4425,0.002660245094524423,-0.072608149596191
-2.44125,0.002325679494535874,-0.05685782624917459
-2.44,0.001991113894547325,-0.04814488141891021
-2.43875,0.0009874170945816775,-0.02401672650433189
-2.4375,-0.001354542105338166,0.05004330455291543
-2.43625,-0.00336193570526946,0.08925155628910519
-2.435,-0.00336193570526946,0.08757598997559281
-2.43375,-0.002692804505292362,0.06947987378965907
-2.4325,-0.002023673305315264,0.05473489023075011
-2.43125,-0.002023673305315264,0.04535171887508076
-2.43,-1.627970538396967e-05,-0.006925950106505584
-2.42875,0.002660245094524423,-0.08098598116375291
-2.4275,0.003329376294501521,-0.09807675756157921
-2.42625,0.002660245094524423,-0.07897530158753804
-2.425,0.002325679494535874,-0.06054407213890184
-2.42375,0.001991113894547325,-0.04948533446972011
-2.4225,0.001656548294558776,-0.03909682332594334
-2.42125,-0.0006854109053610678,0.02658537616374208
-2.42,-0.002692804505292362,0.08288440429775815
-2.41875,-0.00336193570526946,0.09260268891612997
-2.4175,-0.002692804505292362,0.0761821390437086
-2.41625,-0.002023673305315264,0.05942647590858478
-2.415,-0.002023673305315264,0.04836773823940305
-2.41375,-0.001019976505349617,0.01820754459618016
-2.4125,0.001991113894547325,-0.06154941192700927
-2.41125,0.00366394189449007,-0.100757663663199
-2.41,0.002994810694512972,-0.08634779336699254
-2.40875,0.002660245094524423,-0.06590588434214147
-2.4075,0.002325679494535874,-0.05283646709674487
-2.40625,0.001991113894547325,-0.04613420184269534
-2.405,0.0003182858946045794,-0.000223684852456052
-2.40375,-0.002023673305315264,0.0691447605269566
-2.4025,-0.00336193570526946,0.09327291544153492
-2.40125,-0.003027370105280911,0.08187906450965071
-2.4,-0.002358238905303813,0.06445317484912193
-2.39875,-0.002023673305315264,0.05104864434102287
-2.3975,-0.001354542105338166,0.03663877404481637
-2.39625,0.0009874170945816775,-0.03541057743621609
-2.395,0.003329376294501521,-0.09506073819725692
-2.39375,0.003329376294501521,-0.09237983209563712
-2.3925,0.002660245094524423,-0.07193792307078604
-2.39125,0.002325679494535874,-0.05585248646106716
-2.39,0.002325679494535874,-0.04713954163080277
-2.38875,0.001321982694570227,-0.02334649997892694
-2.3875,-0.001354542105338166,0.05071353107832039
-2.38625,-0.00336193570526946,0.0905920093399151
-2.385,-0.00336193570526946,0.08858132976370024
-2.38375,-0.002692804505292362,0.07048521357776651
-2.3825,-0.002023673305315264,0.05540511675615506
-2.38125,-0.002023673305315264,0.04635705866318819
-2.38,-1.627970538396967e-05,-0.006590836843803107
-2.37875,0.002660245094524423,-0.08098598116375291
-2.3775,0.003329376294501521,-0.09740653103617426
-2.37625,0.002994810694512972,-0.07830507506213309
-2.375,0.002325679494535874,-0.05987384561349688
-2.37375,0.001991113894547325,-0.04915022120701763
-2.3725,0.001656548294558776,-0.03842659680053838
-2.37125,-0.0006854109053610678,0.02725560268914703
-2.37,-0.003027370105280911,0.0835546308231631
-2.36875,-0.00336193570526946,0.09327291544153492
-2.3675,-0.003027370105280911,0.07651725230641108
-2.36625,-0.002358238905303813,0.05976158917128726
-2.365,-0.002023673305315264,0.049037964764808
-2.36375,-0.001019976505349617,0.01954799764699007
-2.3625,0.001991113894547325,-0.06020895887619936
-2.36125,0.003329376294501521,-0.0997523238750916
-2.36,0.002994810694512972,-0.08467222705348015
-2.35875,0.002325679494535874,-0.06456543129133155
-2.3575,0.001991113894547325,-0.05116090078323249
-2.35625,0.001991113894547325,-0.04445863552918296
-2.355,0.0003182858946045794,0.001451881461056331
-2.35375,-0.002358238905303813,0.07082032684046899
-2.3525,-0.00336193570526946,0.09461336849234482
-2.35125,-0.003027370105280911,0.08388974408586557
-2.35,-0.002358238905303813,0.06579362789993183
-2.34875,-0.002023673305315264,0.05305932391723772
-2.3475,-0.001689107705326715,0.03831434035832876
-2.34625,0.0009874170945816775,-0.03339989786000123
-2.345,0.003329376294501521,-0.09372028514644702
-2.34375,0.002994810694512972,-0.09137449230752968
-2.3425,0.002660245094524423,-0.07059747001997613
-2.34125,0.002325679494535874,-0.05484714667295974
-2.34,0.001991113894547325,-0.04613420184269534
-2.33875,0.001321982694570227,-0.0223411601908195
-2.3375,-0.001354542105338166,0.05205398412913029
-2.33625,-0.00336193570526946,0.09159734912802253
-2.335,-0.00336193570526946,0.08958666955180768
-2.33375,-0.002692804505292362,0.07115544010317146
-2.3325,-0.002023673305315264,0.05641045654426249
-2.33125,-0.002023673305315264,0.04736239845129563
-2.33,-1.627970538396967e-05,-0.005920610318398154
-2.32875,0.002660245094524423,-0.08031575463834796
-2.3275,0.003329376294501521,-0.09740653103617426
-2.32625,0.002994810694512972,-0.07796996179943062
-2.325,0.002325679494535874,-0.05987384561349688
-2.32375,0.002325679494535874,-0.04881510794431516
-2.3225,0.001656548294558776,-0.0380914835378359
-2.32125,-0.0006854109053610678,0.0275907159518495
-2.32,-0.003027370105280911,0.0835546308231631
-2.31875,-0.003696501305258009,0.09360802870423739
-2.3175,-0.002692804505292362,0.07718747883181604
-2.31625,-0.002358238905303813,0.06043181569669221
-2.315,-0.002023673305315264,0.04970819129021296
-2.31375,-0.001019976505349617,0.01988311090969254
-2.3125,0.001991113894547325,-0.0595387323507944
-2.31125,0.003329376294501521,-0.09941721061238912
-2.31,0.002994810694512972,-0.08534245357888511
-2.30875,0.002660245094524423,-0.06557077107943898
-2.3075,0.002325679494535874,-0.05183112730863745
-2.30625,0.001991113894547325,-0.04546397531729039
-2.305,0.0003182858946045794,0.0004465416729489012
-2.30375,-0.002358238905303813,0.06981498705236155
-2.3025,-0.003696501305258009,0.09360802870423739
-2.30125,-0.003027370105280911,0.08288440429775815
-2.3,-0.002358238905303813,0.06545851463722936
-2.29875,-0.002023673305315264,0.05205398412913029
-2.2975,-0.001689107705326715,0.0376441138329238
-2.29625,0.001321982694570227,-0.03407012438540619
-2.295,0.003329376294501521,-0.09439051167185197
-2.29375,0.002994810694512972,-0.09204471883293464
-2.2925,0.002660245094524423,-0.07126769654538109
-2.29125,0.002325679494535874,-0.05585248646106716
-2.29,0.001991113894547325,-0.0468044283681003
-2.28875,0.001321982694570227,-0.02334649997892694
-2.2875,-0.001354542105338166,0.05104864434102287
-2.28625,-0.00336193570526946,0.09126223586532005
-2.285,-0.003027370105280911,0.08925155628910519
-2.28375,-0.002692804505292362,0.07082032684046899
-2.2825,-0.002358238905303813,0.05574023001885754
-2.28125,-0.002023673305315264,0.04702728518859314
-2.28,-1.627970538396967e-05,-0.005585497055695677
-2.27875,0.002660245094524423,-0.07998064137564548
-2.2775,0.003329376294501521,-0.09707141777347178
-2.27625,0.002660245094524423,-0.07763484853672814
-2.275,0.002325679494535874,-0.05920361908809193
-2.27375,0.001991113894547325,-0.04814488141891021
-2.2725,0.001656548294558776,-0.0380914835378359
-2.27125,-0.0006854109053610678,0.02792582921455198
-2.27,-0.002692804505292362,0.08422485734856805
-2.26875,-0.003696501305258009,0.09394314196693987
-2.2675,-0.003027370105280911,0.07752259209451852
-2.26625,-0.002358238905303813,0.06076692895939469
-2.265,-0.002023673305315264,0.05037841781561792
-2.26375,-0.001019976505349617,0.02088845069779997
-2.2625,0.001991113894547325,-0.05920361908809193
-2.26125,0.003329376294501521,-0.09874698408698417
-2.26,0.002994810694512972,-0.0840020005280752
-2.25875,0.002660245094524423,-0.06356009150322413
-2.2575,0.002325679494535874,-0.05015556099512506
-2.25625,0.001991113894547325,-0.04345329574107553
-2.255,0.0003182858946045794,0.001786994723758807
-2.25375,-0.002358238905303813,0.07082032684046899
-2.2525,-0.003696501305258009,0.09528359501774977
-2.25125,-0.003027370105280911,0.08388974408586557
-2.25,-0.002692804505292362,0.06579362789993183
-2.24875,-0.002023673305315264,0.05272421065453525
-2.2475,-0.001689107705326715,0.03831434035832876
-2.24625,0.0009874170945816775,-0.03339989786000123
-2.245,0.003329376294501521,-0.09372028514644702
-2.24375,0.002994810694512972,-0.0910393790448272
-2.2425,0.002660245094524423,-0.07026235675727366
-2.24125,0.002325679494535874,-0.05451203341025726
-2.24,0.001991113894547325,-0.04579908857999287
-2.23875,0.0009874170945816775,-0.02267627345352198
-2.2375,-0.001689107705326715,0.05171887086642782
-2.23625,-0.00336193570526946,0.09159734912802253
-2.235,-0.00336193570526946,0.08925155628910519
-2.23375,-0.002692804505292362,0.07115544010317146
-2.2325,-0.002023673305315264,0.05641045654426249
-2.23125,-0.002023673305315264,0.04702728518859314
-2.23,-1.627970538396967e-05,-0.005250383792993201
-2.22875,0.002660245094524423,-0.079645528112943
-2.2275,0.003329376294501521,-0.09740653103617426
-2.22625,0.002660245094524423,-0.07796996179943062
-2.225,0.002325679494535874,-0.05987384561349688
-2.22375,0.002325679494535874,-0.04881510794431516
-2.2225,0.001991113894547325,-0.03876171006324086
-2.22125,-0.0006854109053610678,0.0262502629010396
-2.22,-0.003027370105280911,0.08288440429775815
-2.21875,-0.00336193570526946,0.09293780217883243
-2.2175,-0.003027370105280911,0.07685236556911357
-2.21625,-0.002358238905303813,0.06043181569669221
-2.215,-0.002358238905303813,0.04970819129021296
-2.21375,-0.001019976505349617,0.0205533374350975
-2.2125,0.001991113894547325,-0.05920361908809193
-2.21125,0.002994810694512972,-0.09941721061238912
-2.21,0.002994810694512972,-0.08534245357888511
-2.20875,0.002325679494535874,-0.06557077107943898
-2.2075,0.002325679494535874,-0.05216624057133992
-2.20625,0.001991113894547325,-0.04512886205458792
-2.205,0.0003182858946045794,-0.000223684852456052
-2.20375,-0.002358238905303813,0.0691447605269566
-2.2025,-0.00336193570526946,0.09394314196693987
-2.20125,-0.003027370105280911,0.08254929103505566
-2.2,-0.002358238905303813,0.06512340137452688
-2.19875,-0.002023673305315264,0.05171887086642782
-2.1975,-0.001689107705326715,0.03730900057022132
-2.19625,0.0009874170945816775,-0.03440523764810866
-2.195,0.002994810694512972,-0.09472562493455444
-2.19375,0.002994810694512972,-0.09271494535833959
